3999.64014,0.0023908741
3998.35449,0.0023163594
3997.06885,0.0022992620
3995.78320,0.0024169555
3994.49756,0.0024898469
3993.21191,0.0023802281
3991.92627,0.0022150844
3990.64063,0.0021807677
3989.35498,0.0022631430
3988.06934,0.0023154488
3986.78369,0.0022918454
3985.49805,0.0022994441
3984.21240,0.0024651145
3982.92676,0.0028114959
3981.64111,0.0032116363
3980.35547,0.0034220859
3979.06982,0.0032443921
3977.78418,0.0027273491
3976.49854,0.0022091784
3975.21289,0.0020798624
3973.92725,0.0024328863
3972.64160,0.0029600817
3971.35596,0.0032562844
3970.07031,0.0032272052
3968.78467,0.0031239188
3967.49902,0.0031879060
3966.21338,0.0033664114
3964.92773,0.0034271996
3963.64209,0.0032660649
3962.35645,0.0030104122
3961.07080,0.0028464617
3959.78516,0.0028138929
3958.49951,0.0028100107
3957.21387,0.0027469904
3955.92822,0.0026203268
3954.64258,0.0024355159
3953.35693,0.0021574576
3952.07129,0.0017850840
3950.78564,0.0014364037
3949.50000,0.0012963349
3948.21436,0.0014452082
3946.92871,0.0017325561
3945.64307,0.0018924210
3944.35742,0.0017946498
3943.07178,0.0015557600
3941.78613,0.0014317808
3940.50049,0.0015804927
3939.21484,0.0019127005
3937.92920,0.0021967939
3936.64355,0.0022406091
3935.35791,0.0019680588
3934.07227,0.0014311055
3932.78662,0.0007956605
3931.50098,0.0002990859
3930.21533,0.0001354824
3928.92969,0.0002956407
3927.64404,0.0005804664
3926.35840,0.0008152149
3925.07275,0.0010058242
3923.78711,0.0012659068
3922.50146,0.0015974843
3921.21582,0.0018356689
3919.93018,0.0018696204
3918.64453,0.0017876314
3917.35889,0.0017704506
3916.07324,0.0019128826
3914.78760,0.0021558190
3913.50195,0.0023460805
3912.21631,0.0023600308
3910.93066,0.0022161512
3909.64502,0.0020753364
3908.35938,0.0020508878
3907.07373,0.0020281828
3905.78809,0.0017649406
3904.50244,0.0011835387
3903.21680,0.0005406024
3901.93115,0.0002132751
3900.64551,0.0002846059
3899.35986,0.0005396434
3898.07422,0.0007625967
3896.78857,0.0008485680
3895.50293,0.0007661494
3894.21729,0.0005375440
3892.93164,0.0002729498
3891.64600,0.0001940328
3890.36035,0.0004755785
3889.07471,0.0009560108
3887.78906,0.0012852484
3886.50342,0.0013202477
3885.21777,0.0011894049
3883.93213,0.0011356514
3882.64648,0.0012844177
3881.36084,0.0015773751
3880.07520,0.0019214886
3878.78955,0.0022580170
3877.50391,0.0025314523
3876.21826,0.0026680133
3874.93262,0.0025549126
3873.64697,0.0020910467
3872.36133,0.0013280632
3871.07568,0.0005228487
3869.79004,-0.0000115968
3868.50439,-0.0000965957
3867.21875,0.0001818611
3865.93311,0.0005938935
3864.64746,0.0009847825
3863.36182,0.0013155222
3862.07617,0.0015933013
3860.79053,0.0017858120
3859.50488,0.0017919465
3858.21924,0.0015125334
3856.93359,0.0009182133
3855.64795,0.0000492638
3854.36230,-0.0009619438
3853.07666,-0.0016919720
3851.79102,-0.0015060200
3850.50537,-0.0005928497
3849.21973,0.0003017022
3847.93408,0.0009034274
3846.64844,0.0012400758
3845.36279,0.0013781789
3844.07715,0.0013666233
3842.79150,0.0012059398
3841.50586,0.0007986688
3840.22021,0.0000028475
3838.93457,-0.0011147193
3837.64893,-0.0020319470
3836.36328,-0.0021060926
3835.07764,-0.0013898177
3833.79199,-0.0005152908
3832.50635,0.0000659366
3831.22070,0.0002635992
3829.93506,0.0001486627
3828.64941,-0.0001696235
3827.36377,-0.0005376292
3826.07813,-0.0007788314
3824.79248,-0.0008478175
3823.50684,-0.0009103865
3822.22119,-0.0011215355
3820.93555,-0.0013252532
3819.64990,-0.0011601079
3818.36426,-0.0006995999
3817.07861,-0.0004049266
3815.79297,-0.0003825814
3814.50732,-0.0002859976
3813.22168,0.0001376057
3811.93604,0.0006998471
3810.65039,0.0011019907
3809.36475,0.0012190489
3808.07910,0.0010842141
3806.79346,0.0008039076
3805.50781,0.0004646687
3804.22217,0.0000626486
3802.93652,-0.0003978404
3801.65088,-0.0007389848
3800.36523,-0.0007205333
3799.07959,-0.0004987432
3797.79395,-0.0005061897
3796.50830,-0.0007584692
3795.22266,-0.0008216196
3793.93701,-0.0003586831
3792.65137,0.0004848559
3791.36572,0.0013090571
3790.08008,0.0018321591
3788.79443,0.0019919043
3787.50879,0.0019044586
3786.22314,0.0017587544
3784.93750,0.0016788916
3783.65186,0.0016496581
3782.36621,0.0015819736
3781.08057,0.0014558049
3779.79492,0.0013691161
3778.50928,0.0014586621
3777.22363,0.0017062300
3775.93799,0.0018519162
3774.65234,0.0016220114
3773.36670,0.0009856906
3772.08105,0.0001823532
3770.79541,-0.0004294429
3769.50977,-0.0006003464
3768.22412,-0.0003618904
3766.93848,0.0000822475
3765.65283,0.0006235486
3764.36719,0.0012219301
3763.08154,0.0017142601
3761.79590,0.0018272982
3760.51025,0.0013831130
3759.22461,0.0005432460
3757.93896,-0.0000865541
3756.65332,0.0000272588
3755.36768,0.0006492392
3754.08203,0.0010860567
3752.79639,0.0008392569
3751.51074,-0.0001760924
3750.22510,-0.0015369229
3748.93945,-0.0024925896
3747.65381,-0.0028421232
3746.36816,-0.0029663190
3745.08252,-0.0030445724
3743.79688,-0.0028522555
3742.51123,-0.0022073723
3741.22559,-0.0014661887
3739.93994,-0.0010902934
3738.65430,-0.0012059563
3737.36865,-0.0016644839
3736.08301,-0.0021336044
3734.79736,-0.0022604237
3733.51172,-0.0020087066
3732.22607,-0.0016534984
3730.94043,-0.0013355758
3729.65479,-0.0010525930
3728.36914,-0.0008743756
3727.08350,-0.0008944222
3725.79785,-0.0010524380
3724.51221,-0.0010792417
3723.22656,-0.0007406387
3721.94092,-0.0001243901
3720.65527,0.0005070396
3719.36963,0.0010312261
3718.08398,0.0014535714
3716.79834,0.0016991613
3715.51270,0.0015944444
3714.22705,0.0010221965
3712.94141,0.0000309089
3711.65576,-0.0010825987
3710.37012,-0.0017249243
3709.08447,-0.0014931217
3707.79883,-0.0007360388
3706.51318,-0.0000136676
3705.22754,0.0004539924
3703.94189,0.0007030881
3702.65625,0.0008241365
3701.37061,0.0008765805
3700.08496,0.0009182652
3698.79932,0.0010444075
3697.51367,0.0013073435
3696.22803,0.0016154377
3694.94238,0.0017518669
3693.65674,0.0015238074
3692.37109,0.0009176946
3691.08545,0.0001333591
3689.79980,-0.0004644565
3688.51416,-0.0004963645
3687.22852,0.0000280095
3685.94287,0.0006707054
3684.65723,0.0011265157
3683.37158,0.0013581319
3682.08594,0.0013950068
3680.80029,0.0012419969
3679.51465,0.0009104313
3678.22900,0.0004773147
3676.94336,0.0000679042
3675.65771,-0.0002193023
3674.37207,-0.0003619421
3673.08643,-0.0003877023
3671.80078,-0.0002999665
3670.51514,-0.0000662630
3669.22949,0.0003274256
3667.94385,0.0007978390
3666.65820,0.0012102230
3665.37256,0.0014994676
3664.08691,0.0016443311
3662.80127,0.0016173085
3661.51563,0.0014238596
3660.22998,0.0011355995
3658.94434,0.0008378564
3657.65869,0.0005676618
3656.37305,0.0003550676
3655.08740,0.0002942937
3653.80176,0.0004370974
3652.51611,0.0006245596
3651.23047,0.0005239632
3649.94482,-0.0002300136
3648.65918,-0.0015954211
3647.37354,-0.0024940826
3646.08789,-0.0019967507
3644.80225,-0.0006449099
3643.51660,0.0007015843
3642.23096,0.0015532143
3640.94531,0.0017492680
3639.65967,0.0014429747
3638.37402,0.0009504331
3637.08838,0.0004291166
3635.80273,-0.0001658974
3634.51709,-0.0007511821
3633.23145,-0.0009714487
3631.94580,-0.0005534516
3630.66016,0.0003265448
3629.37451,0.0011475903
3628.08887,0.0014567660
3626.80322,0.0013883587
3625.51758,0.0014283006
3624.23193,0.0016153598
3622.94629,0.0016346131
3621.66064,0.0011812545
3620.37500,0.0001814209
3619.08936,-0.0009899928
3617.80371,-0.0016172914
3616.51807,-0.0014316170
3615.23242,-0.0009468596
3613.94678,-0.0007228075
3612.66113,-0.0008595984
3611.37549,-0.0010609597
3610.08984,-0.0009698473
3608.80420,-0.0005159114
3607.51855,0.0000907657
3606.23291,0.0006305479
3604.94727,0.0010724586
3603.66162,0.0014746877
3602.37598,0.0018846993
3601.09033,0.0024041226
3599.80469,0.0030935449
3598.51904,0.0036875620
3597.23340,0.0037142960
3595.94775,0.0031317663
3594.66211,0.0025646253
3593.37646,0.0026312650
3592.09082,0.0031051203
3590.80518,0.0031359382
3589.51953,0.0021339927
3588.23389,0.0001759567
3586.94824,-0.0018777411
3585.66260,-0.0027771567
3584.37695,-0.0022453845
3583.09131,-0.0011257700
3581.80566,-0.0002033643
3580.52002,0.0001666341
3579.23438,-0.0000326669
3577.94873,-0.0004132540
3576.66309,-0.0003342663
3575.37744,0.0004642282
3574.09180,0.0014472341
3572.80615,0.0018426357
3571.52051,0.0015622809
3570.23486,0.0011973738
3568.94922,0.0011451506
3567.66357,0.0010052792
3566.37793,-0.0000149618
3565.09229,-0.0018085060
3563.80664,-0.0032088996
3562.52100,-0.0035744943
3561.23535,-0.0031451192
3559.94971,-0.0023002340
3558.66406,-0.0012574267
3557.37842,-0.0002732698
3556.09277,0.0001856421
3554.80713,-0.0003135212
3553.52148,-0.0017132701
3552.23584,-0.0033329909
3550.95020,-0.0043753418
3549.66455,-0.0045821499
3548.37891,-0.0041165915
3547.09326,-0.0029865263
3545.80762,-0.0010916361
3544.52197,0.0011231160
3543.23633,0.0025844418
3541.95068,0.0026159256
3540.66504,0.0016146322
3539.37939,0.0005373885
3538.09375,-0.0000171362
3536.80811,-0.0001312738
3535.52246,-0.0000813261
3534.23682,0.0002049876
3532.95117,0.0008863333
3531.66553,0.0016495541
3530.37988,0.0018942149
3529.09424,0.0014170811
3527.80859,0.0005599897
3526.52295,-0.0002719763
3525.23730,-0.0008709655
3523.95166,-0.0010327084
3522.66602,-0.0006439277
3521.38037,-0.0000213813
3520.09473,0.0002815494
3518.80908,0.0000585321
3517.52344,-0.0005123434
3516.23779,-0.0013144139
3514.95215,-0.0023847350
3513.66650,-0.0035704384
3512.38086,-0.0044626687
3511.09521,-0.0048290016
3509.80957,-0.0048984219
3508.52393,-0.0051471409
3507.23828,-0.0058992356
3505.95264,-0.0071188924
3504.66699,-0.0083294958
3503.38135,-0.0087679839
3502.09570,-0.0081118634
3500.81006,-0.0071494998
3499.52441,-0.0068641664
3498.23877,-0.0070247627
3496.95313,-0.0064670565
3495.66748,-0.0046533011
3494.38184,-0.0023925609
3493.09619,-0.0009276418
3491.81055,-0.0006051028
3490.52490,-0.0006561276
3489.23926,0.0000613541
3487.95361,0.0019182385
3486.66797,0.0037780050
3485.38232,0.0036591063
3484.09668,0.0006229005
3482.81104,-0.0040873084
3481.52539,-0.0079182182
3480.23975,-0.0090669272
3478.95410,-0.0077345576
3477.66846,-0.0053796619
3476.38281,-0.0031604874
3475.09717,-0.0014731541
3473.81152,-0.0005985369
3472.52588,-0.0011104334
3471.24023,-0.0033432662
3469.95459,-0.0066036307
3468.66895,-0.0094513828
3467.38330,-0.0108825266
3466.09766,-0.0109935934
3464.81201,-0.0104808388
3463.52637,-0.0096896105
3462.24072,-0.0085162539
3460.95508,-0.0072625414
3459.66943,-0.0070576696
3458.38379,-0.0087456089
3457.09814,-0.0115817143
3455.81250,-0.0137194553
3454.52686,-0.0141353486
3453.24121,-0.0135548925
3451.95557,-0.0133627057
3450.66992,-0.0142250936
3449.38428,-0.0159181487
3448.09863,-0.0178261064
3446.81299,-0.0190520119
3445.52734,-0.0185437780
3444.24170,-0.0160016902
3442.95605,-0.0125568006
3441.67041,-0.0100404331
3440.38477,-0.0094439369
3439.09912,-0.0104556195
3437.81348,-0.0123019228
3436.52783,-0.0144410376
3435.24219,-0.0163538828
3433.95654,-0.0172396172
3432.67090,-0.0159128588
3431.38525,-0.0115145138
3430.09961,-0.0047969501
3428.81396,0.0008147740
3427.52832,0.0008350294
3426.24268,-0.0062557859
3424.95703,-0.0169185624
3423.67139,-0.0253194682
3422.38574,-0.0275004469
3421.10010,-0.0230463333
3419.81445,-0.0145367282
3418.52881,-0.0063298265
3417.24316,-0.0024374041
3415.95752,-0.0049852859
3414.67188,-0.0129270265
3413.38623,-0.0219807178
3412.10059,-0.0267258789
3410.81494,-0.0245487280
3409.52930,-0.0181135163
3408.24365,-0.0128594283
3406.95801,-0.0113138054
3405.67236,-0.0114803305
3404.38672,-0.0112495907
3403.10107,-0.0121965781
3401.81543,-0.0169143789
3400.52979,-0.0242507569
3399.24414,-0.0302672833
3397.95850,-0.0330587700
3396.67285,-0.0337497145
3395.38721,-0.0330511406
3394.10156,-0.0297554266
3392.81592,-0.0239350460
3391.53027,-0.0186802298
3390.24463,-0.0170922093
3388.95898,-0.0190131627
3387.67334,-0.0222870819
3386.38770,-0.0265063643
3385.10205,-0.0327086821
3383.81641,-0.0394078456
3382.53076,-0.0416546278
3381.24512,-0.0363382213
3379.95947,-0.0262643695
3378.67383,-0.0178797673
3377.38818,-0.0156597961
3376.10254,-0.0185556822
3374.81689,-0.0218805987
3373.53125,-0.0221036915
3372.24561,-0.0198365208
3370.95996,-0.0186919793
3369.67432,-0.0212984309
3368.38867,-0.0271444377
3367.10303,-0.0337523520
3365.81738,-0.0387623087
3364.53174,-0.0406675637
3363.24609,-0.0391620547
3361.96045,-0.0358956903
3360.67480,-0.0339552574
3359.38916,-0.0356952585
3358.10352,-0.0409547202
3356.81787,-0.0473571867
3355.53223,-0.0511962399
3354.24658,-0.0488515869
3352.96094,-0.0393126570
3351.67529,-0.0265196599
3350.38965,-0.0177866966
3349.10400,-0.0182215553
3347.81836,-0.0253726523
3346.53271,-0.0317177512
3345.24707,-0.0331375934
3343.96143,-0.0327830538
3342.67578,-0.0349515155
3341.39014,-0.0374672152
3340.10449,-0.0336078145
3338.81885,-0.0213602427
3337.53320,-0.0080156615
3336.24756,-0.0034158016
3334.96191,-0.0101136295
3333.67627,-0.0222187173
3332.39063,-0.0322981924
3331.10498,-0.0370281599
3329.81934,-0.0370517410
3328.53369,-0.0345501266
3327.24805,-0.0313271396
3325.96240,-0.0280239880
3324.67676,-0.0241320636
3323.39111,-0.0191920176
3322.10547,-0.0140933022
3320.81982,-0.0111088175
3319.53418,-0.0127629163
3318.24854,-0.0198625848
3316.96289,-0.0305019878
3315.67725,-0.0405857116
3314.39160,-0.0457451157
3313.10596,-0.0437322110
3311.82031,-0.0358469225
3310.53467,-0.0265542902
3309.24902,-0.0213770978
3307.96338,-0.0234209709
3306.67773,-0.0302468557
3305.39209,-0.0354141966
3304.10645,-0.0347719677
3302.82080,-0.0302850008
3301.53516,-0.0267758239
3300.24951,-0.0260307752
3298.96387,-0.0260043964
3297.67822,-0.0247696731
3296.39258,-0.0220565032
3295.10693,-0.0176570266
3293.82129,-0.0114493193
3292.53564,-0.0054896376
3291.25000,-0.0025932642
3289.96436,-0.0031268722
3288.67871,-0.0058065276
3287.39307,-0.0106154503
3286.10742,-0.0184642002
3284.82178,-0.0280087516
3283.53613,-0.0354602411
3282.25049,-0.0379333422
3280.96484,-0.0355643407
3279.67920,-0.0304876976
3278.39355,-0.0252976380
3277.10791,-0.0222658347
3275.82227,-0.0225632507
3274.53662,-0.0256720968
3273.25098,-0.0301829614
3271.96533,-0.0351952128
3270.67969,-0.0404606946
3269.39404,-0.0450111665
3268.10840,-0.0468233600
3266.82275,-0.0445437431
3265.53711,-0.0390364826
3264.25146,-0.0322295539
3262.96582,-0.0253512636
3261.68018,-0.0194658544
3260.39453,-0.0158847105
3259.10889,-0.0149348341
3257.82324,-0.0156542510
3256.53760,-0.0173410587
3255.25195,-0.0203397349
3253.96631,-0.0241082124
3252.68066,-0.0265444033
3251.39502,-0.0269028973
3250.10938,-0.0272340644
3248.82373,-0.0291574448
3247.53809,-0.0316763632
3246.25244,-0.0336734019
3244.96680,-0.0359355807
3243.68115,-0.0390202999
3242.39551,-0.0416775346
3241.10986,-0.0427889451
3239.82422,-0.0426415689
3238.53857,-0.0407682993
3237.25293,-0.0355439708
3235.96729,-0.0277784243
3234.68164,-0.0225381367
3233.39600,-0.0248746015
3232.11035,-0.0342744924
3230.82471,-0.0446407832
3229.53906,-0.0496771596
3228.25342,-0.0477010533
3226.96777,-0.0419268906
3225.68213,-0.0363707431
3224.39648,-0.0321955718
3223.11084,-0.0282946937
3221.82520,-0.0243038777
3220.53955,-0.0217704121
3219.25391,-0.0223051812
3217.96826,-0.0253181998
3216.68262,-0.0283717141
3215.39697,-0.0296710152
3214.11133,-0.0293937661
3212.82568,-0.0283309277
3211.54004,-0.0265812185
3210.25439,-0.0244716611
3208.96875,-0.0237990133
3207.68311,-0.0262841079
3206.39746,-0.0311250165
3205.11182,-0.0356104150
3203.82617,-0.0379067287
3202.54053,-0.0381658860
3201.25488,-0.0372830965
3199.96924,-0.0357582979
3198.68359,-0.0340760872
3197.39795,-0.0332457982
3196.11230,-0.0341386423
3194.82666,-0.0364690535
3193.54102,-0.0387003236
3192.25537,-0.0391173437
3190.96973,-0.0370613895
3189.68408,-0.0331796110
3188.39844,-0.0286443811
3187.11279,-0.0245462302
3185.82715,-0.0220011901
3184.54150,-0.0218329914
3183.25586,-0.0236726440
3181.97021,-0.0260031279
3180.68457,-0.0276557319
3179.39893,-0.0286950748
3178.11328,-0.0295745376
3176.82764,-0.0301109999
3175.54199,-0.0298198685
3174.25635,-0.0290256999
3172.97070,-0.0287535619
3171.68506,-0.0296552014
3170.39941,-0.0313761644
3169.11377,-0.0328832828
3167.82813,-0.0331784077
3166.54248,-0.0317870006
3165.25684,-0.0288361218
3163.97119,-0.0249465611
3162.68555,-0.0212278869
3161.39990,-0.0190948695
3160.11426,-0.0193432681
3158.82861,-0.0213090796
3157.54297,-0.0234204810
3156.25732,-0.0246714167
3154.97168,-0.0251539666
3153.68604,-0.0252792705
3152.40039,-0.0252173319
3151.11475,-0.0250345897
3149.82910,-0.0246538073
3148.54346,-0.0237897504
3147.25781,-0.0224634632
3145.97217,-0.0213340688
3144.68652,-0.0209105089
3143.40088,-0.0207830016
3142.11523,-0.0202443749
3140.82959,-0.0192661136
3139.54395,-0.0183004830
3138.25830,-0.0175474044
3136.97266,-0.0169907603
3135.68701,-0.0167795662
3134.40137,-0.0170400944
3133.11572,-0.0175994076
3131.83008,-0.0182342641
3130.54443,-0.0188346803
3129.25879,-0.0191550646
3127.97314,-0.0188348796
3126.68750,-0.0178536810
3125.40186,-0.0165849663
3124.11621,-0.0152989412
3122.83057,-0.0139580118
3121.54492,-0.0126324398
3120.25928,-0.0116876131
3118.97363,-0.0113970255
3117.68799,-0.0116097927
3116.40234,-0.0119141405
3115.11670,-0.0119829401
3113.83105,-0.0117140207
3112.54541,-0.0111678578
3111.25977,-0.0104499087
3109.97412,-0.0097359847
3108.68848,-0.0093968725
3107.40283,-0.0098681953
3106.11719,-0.0111345043
3104.83154,-0.0123921484
3103.54590,-0.0125973364
3102.26025,-0.0114951031
3100.97461,-0.0099133356
3099.68896,-0.0089291465
3098.40332,-0.0088905478
3097.11768,-0.0093310550
3095.83203,-0.0095995823
3094.54639,-0.0093802037
3093.26074,-0.0087266313
3091.97510,-0.0078342790
3090.68945,-0.0068624336
3089.40381,-0.0059531657
3088.11816,-0.0053244326
3086.83252,-0.0051791677
3085.54688,-0.0054339622
3084.26123,-0.0056320392
3082.97559,-0.0053356322
3081.68994,-0.0046342467
3080.40430,-0.0040834099
3079.11865,-0.0040282723
3077.83301,-0.0041410537
3076.54736,-0.0038230482
3075.26172,-0.0029721293
3073.97607,-0.0021375713
3072.69043,-0.0018892881
3071.40479,-0.0022362166
3070.11914,-0.0027394996
3068.83350,-0.0030319768
3067.54785,-0.0030481711
3066.26221,-0.0028344076
3064.97656,-0.0023864852
3063.69092,-0.0017821596
3062.40527,-0.0013137429
3061.11963,-0.0012806045
3059.83398,-0.0016436474
3058.54834,-0.0020343687
3057.26270,-0.0021605478
3055.97705,-0.0020769311
3054.69141,-0.0019574277
3053.40576,-0.0017611742
3052.12012,-0.0013421823
3050.83447,-0.0008031715
3049.54883,-0.0004540096
3048.26318,-0.0003852194
3046.97754,-0.0002960863
3045.69189,0.0001632417
3044.40625,0.0009988707
3043.12061,0.0018924729
3041.83496,0.0024990372
3040.54932,0.0026904654
3039.26367,0.0025845980
3037.97803,0.0024066477
3036.69238,0.0023142255
3035.40674,0.0023410055
3034.12109,0.0024757362
3032.83545,0.0027412595
3031.54980,0.0031654024
3030.26416,0.0036997800
3028.97852,0.0042169890
3027.69287,0.0046069422
3026.40723,0.0048578293
3025.12158,0.0050056768
3023.83594,0.0050143972
3022.55029,0.0048011076
3021.26465,0.0044278735
3019.97900,0.0041662049
3018.69336,0.0042415857
3017.40771,0.0045615272
3016.12207,0.0048306063
3014.83643,0.0049244291
3013.55078,0.0050107832
3012.26514,0.0052688746
3010.97949,0.0056159524
3009.69385,0.0057974267
3008.40820,0.0056859474
3007.12256,0.0054067974
3005.83691,0.0051984754
3004.55127,0.0052179666
3003.26563,0.0054753944
3001.97998,0.0058943192
3000.69434,0.0063965488
2999.40869,0.0069280812
2998.12305,0.0074108099
2996.83740,0.0077025560
2995.55176,0.0076726512
2994.26611,0.0073551228
2992.98047,0.0069913422
2991.69482,0.0068486016
2990.40918,0.0069842916
2989.12354,0.0072205286
2987.83789,0.0073399050
2986.55225,0.0072730132
2985.26660,0.0071278918
2983.98096,0.0070916587
2982.69531,0.0072922297
2981.40967,0.0076938351
2980.12402,0.0081173843
2978.83838,0.0084210848
2977.55273,0.0086606666
2976.26709,0.0090053407
2974.98145,0.0094889319
2973.69580,0.0099265520
2972.41016,0.0101180496
2971.12451,0.0100669935
2969.83887,0.0099581219
2968.55322,0.0099660680
2967.26758,0.0101486007
2965.98193,0.0104734544
2964.69629,0.0108675295
2963.41064,0.0112225134
2962.12500,0.0114175072
2960.83936,0.0113903740
2959.55371,0.0111920722
2958.26807,0.0109555777
2956.98242,0.0108052399
2955.69678,0.0107882563
2954.41113,0.0108771911
2953.12549,0.0110250311
2951.83984,0.0112041840
2950.55420,0.0113878502
2949.26855,0.0115181599
2947.98291,0.0115475608
2946.69727,0.0115328338
2945.41162,0.0116330078
2944.12598,0.0119548505
2942.84033,0.0124137700
2941.55469,0.0127862291
2940.26904,0.0129057597
2938.98340,0.0128044374
2937.69775,0.0126847476
2936.41211,0.0127563709
2935.12646,0.0130627211
2933.84082,0.0134529322
2932.55518,0.0137445983
2931.26953,0.0139021585
2929.98389,0.0140195088
2928.69824,0.0141709642
2927.41260,0.0143451868
2926.12695,0.0145121980
2924.84131,0.0146795688
2923.55566,0.0148653798
2922.27002,0.0150499847
2920.98438,0.0151718017
2919.69873,0.0151655022
2918.41309,0.0150087159
2917.12744,0.0147408908
2915.84180,0.0144391349
2914.55615,0.0141832670
2913.27051,0.0140241347
2911.98486,0.0139413690
2910.69922,0.0138303181
2909.41357,0.0135859745
2908.12793,0.0132287610
2906.84229,0.0129104257
2905.55664,0.0127582373
2904.27100,0.0127309132
2902.98535,0.0126594817
2901.69971,0.0124344928
2900.41406,0.0121245133
2899.12842,0.0118957311
2897.84277,0.0118373111
2896.55713,0.0118966894
2895.27148,0.0119759794
2893.98584,0.0120461546
2892.70020,0.0121423211
2891.41455,0.0122707542
2890.12891,0.0123591153
2888.84326,0.0123148002
2887.55762,0.0121242190
2886.27197,0.0118682757
2884.98633,0.0116379000
2883.70068,0.0114697842
2882.41504,0.0113746691
2881.12939,0.0113794804
2879.84375,0.0114834988
2878.55811,0.0116122961
2877.27246,0.0116737979
2875.98682,0.0116590392
2874.70117,0.0116412779
2873.41553,0.0116748875
2872.12988,0.0117303329
2870.84424,0.0117353601
2869.55859,0.0116641978
2868.27295,0.0115768835
2866.98730,0.0115692802
2865.70166,0.0116822012
2864.41602,0.0118723465
2863.13037,0.0120836822
2861.84473,0.0123190060
2860.55908,0.0126075940
2859.27344,0.0129204001
2857.98779,0.0131800594
2856.70215,0.0133514823
2855.41650,0.0134560829
2854.13086,0.0134848142
2852.84521,0.0133814877
2851.55957,0.0131540177
2850.27393,0.0129218120
2848.98828,0.0127840424
2847.70264,0.0126937833
2846.41699,0.0125319194
2845.13135,0.0122620473
2843.84570,0.0119578587
2842.56006,0.0117093511
2841.27441,0.0115476400
2839.98877,0.0114447754
2838.70313,0.0113582211
2837.41748,0.0112725347
2836.13184,0.0112011293
2834.84619,0.0111498414
2833.56055,0.0110975765
2832.27490,0.0110261459
2830.98926,0.0109482510
2829.70361,0.0108968597
2828.41797,0.0109000709
2827.13232,0.0109636215
2825.84668,0.0110586202
2824.56104,0.0111266281
2823.27539,0.0111227529
2821.98975,0.0110519817
2820.70410,0.0109501891
2819.41846,0.0108392620
2818.13281,0.0107174339
2816.84717,0.0105844457
2815.56152,0.0104577830
2814.27588,0.0103614843
2812.99023,0.0103159677
2811.70459,0.0103406738
2810.41895,0.0104405480
2809.13330,0.0105754016
2807.84766,0.0106641324
2806.56201,0.0106478976
2805.27637,0.0105388258
2803.99072,0.0103859818
2802.70508,0.0102231186
2801.41943,0.0100754984
2800.13379,0.0099815624
2798.84814,0.0099590216
2797.56250,0.0099648759
2796.27686,0.0099416217
2794.99121,0.0099048344
2793.70557,0.0099453824
2792.41992,0.0101244617
2791.13428,0.0103770988
2789.84863,0.0105429366
2788.56299,0.0105089378
2787.27734,0.0103127342
2785.99170,0.0100897262
2784.70605,0.0099355569
2783.42041,0.0098468401
2782.13477,0.0097793229
2780.84912,0.0097164484
2779.56348,0.0096744923
2778.27783,0.0096762134
2776.99219,0.0097302133
2775.70654,0.0098200170
2774.42090,0.0098993527
2773.13525,0.0099119060
2771.84961,0.0098365927
2770.56396,0.0097239912
2769.27832,0.0096767424
2767.99268,0.0097628022
2766.70703,0.0099419914
2765.42139,0.0100910505
2764.13574,0.0101084849
2762.85010,0.0099926619
2761.56445,0.0098361960
2760.27881,0.0097582741
2758.99316,0.0098174224
2757.70752,0.0099573536
2756.42188,0.0100481045
2755.13623,0.0100064091
2753.85059,0.0098840455
2752.56494,0.0098250741
2751.27930,0.0099234255
2749.99365,0.0101227378
2748.70801,0.0102671692
2747.42236,0.0102521405
2746.13672,0.0101141548
2744.85107,0.0099658826
2743.56543,0.0098779546
2742.27979,0.0098435832
2740.99414,0.0098391082
2739.70850,0.0098742470
2738.42285,0.0099702515
2737.13721,0.0101010660
2735.85156,0.0101910783
2734.56592,0.0101929605
2733.28027,0.0101518063
2731.99463,0.0101407310
2730.70898,0.0101415524
2729.42334,0.0100605572
2728.13770,0.0098823505
2726.85205,0.0097265607
2725.56641,0.0097046942
2724.28076,0.0097858356
2722.99512,0.0098597882
2721.70947,0.0098875677
2720.42383,0.0099239824
2719.13818,0.0100163156
2717.85254,0.0101333372
2716.56689,0.0101981014
2715.28125,0.0101596508
2713.99561,0.0100383293
2712.70996,0.0099130441
2711.42432,0.0098518711
2710.13867,0.0098405639
2708.85303,0.0097993389
2707.56738,0.0096838363
2706.28174,0.0095463218
2704.99609,0.0094785327
2703.71045,0.0095220571
2702.42480,0.0096533960
2701.13916,0.0098143239
2699.85352,0.0099295434
2698.56787,0.0099334894
2697.28223,0.0098253926
2695.99658,0.0096830418
2694.71094,0.0095908586
2693.42529,0.0095754033
2692.13965,0.0096168993
2690.85400,0.0096863238
2689.56836,0.0097509939
2688.28271,0.0097833462
2686.99707,0.0097929575
2685.71143,0.0098245712
2684.42578,0.0099032978
2683.14014,0.0100003164
2681.85449,0.0100705177
2680.56885,0.0101071866
2679.28320,0.0101458710
2677.99756,0.0102199381
2676.71191,0.0103258286
2675.42627,0.0104312664
2674.14063,0.0105096530
2672.85498,0.0105550317
2671.56934,0.0105621666
2670.28369,0.0105094677
2668.99805,0.0103822956
2667.71240,0.0102124121
2666.42676,0.0100726373
2665.14111,0.0100181177
2663.85547,0.0100419056
2662.56982,0.0101007214
2661.28418,0.0101707801
2659.99854,0.0102568045
2658.71289,0.0103558637
2657.42725,0.0104401754
2656.14160,0.0104861576
2654.85596,0.0105017778
2653.57031,0.0105163101
2652.28467,0.0105512394
2650.99902,0.0106002279
2649.71338,0.0106294071
2648.42773,0.0106059844
2647.14209,0.0105381096
2645.85645,0.0104737729
2644.57080,0.0104477862
2643.28516,0.0104487408
2641.99951,0.0104552368
2640.71387,0.0104789166
2639.42822,0.0105388258
2638.14258,0.0106147910
2636.85693,0.0106639741
2635.57129,0.0106768943
2634.28564,0.0106775314
2633.00000,0.0106714554
2631.71436,0.0106374975
2630.42871,0.0105819795
2629.14307,0.0105604948
2627.85742,0.0106201498
2626.57178,0.0107414732
2625.28613,0.0108564086
2624.00049,0.0109107420
2622.71484,0.0108952392
2621.42920,0.0108351232
2620.14355,0.0107588805
2618.85791,0.0106673967
2617.57227,0.0105349543
2616.28662,0.0103594689
2615.00098,0.0102067683
2613.71533,0.0101705417
2612.42969,0.0102787511
2611.14404,0.0104623176
2609.85840,0.0106181605
2608.57275,0.0106831286
2607.28711,0.0106529640
2606.00146,0.0105739422
2604.71582,0.0105211893
2603.43018,0.0105485860
2602.14453,0.0106384270
2600.85889,0.0107151261
2599.57324,0.0107137728
2598.28760,0.0106203081
2597.00195,0.0104601700
2595.71631,0.0102815088
2594.43066,0.0101433536
2593.14502,0.0100761075
2591.85938,0.0100481845
2590.57373,0.0100015346
2589.28809,0.0099226581
2588.00244,0.0098509714
2586.71680,0.0098196734
2585.43115,0.0098242005
2584.14551,0.0098544406
2582.85986,0.0099224206
2581.57422,0.0100277346
2580.28857,0.0101167243
2579.00293,0.0101113468
2577.71729,0.0099865953
2576.43164,0.0097984914
2575.14600,0.0096232509
2573.86035,0.0094946194
2572.57471,0.0094157541
2571.28906,0.0093968939
2570.00342,0.0094365999
2568.71777,0.0094787180
2567.43213,0.0094452249
2566.14648,0.0093229664
2564.86084,0.0091877868
2563.57520,0.0091287773
2562.28955,0.0091680372
2561.00391,0.0092557417
2559.71826,0.0093192635
2558.43262,0.0093202693
2557.14697,0.0092822388
2555.86133,0.0092610568
2554.57568,0.0092758657
2553.29004,0.0092819482
2552.00439,0.0092308326
2550.71875,0.0091345413
2549.43311,0.0090402262
2548.14746,0.0089613656
2546.86182,0.0088749621
2545.57617,0.0087709837
2544.29053,0.0086601647
2543.00488,0.0085374946
2541.71924,0.0083919233
2540.43359,0.0082552908
2539.14795,0.0081929537
2537.86230,0.0082231583
2536.57666,0.0082823075
2535.29102,0.0083004870
2534.00537,0.0082847355
2532.71973,0.0082943672
2531.43408,0.0083466116
2530.14844,0.0083844010
2528.86279,0.0083419681
2527.57715,0.0082151387
2526.29150,0.0080535626
2525.00586,0.0079103941
2523.72021,0.0078117074
2522.43457,0.0077489056
2521.14893,0.0076794215
2519.86328,0.0075625852
2518.57764,0.0074168663
2517.29199,0.0073203710
2516.00635,0.0073315068
2514.72070,0.0074311909
2513.43506,0.0075485199
2512.14941,0.0076216972
2510.86377,0.0076237526
2509.57813,0.0075645861
2508.29248,0.0074828863
2507.00684,0.0074142343
2505.72119,0.0073583350
2504.43555,0.0072912555
2503.14990,0.0072033680
2501.86426,0.0071076043
2500.57861,0.0070190695
2499.29297,0.0069414163
2498.00732,0.0068694041
2496.72168,0.0068027689
2495.43604,0.0067637488
2494.15039,0.0067875180
2492.86475,0.0068687731
2491.57910,0.0069334460
2490.29346,0.0068992013
2489.00781,0.0067638275
2487.72217,0.0066057350
2486.43652,0.0064987508
2485.15088,0.0064509572
2483.86523,0.0064326194
2482.57959,0.0064334334
2481.29395,0.0064679566
2480.00830,0.0065325703
2478.72266,0.0065933298
2477.43701,0.0066232919
2476.15137,0.0066283387
2474.86572,0.0066199540
2473.58008,0.0065853400
2472.29443,0.0065054782
2471.00879,0.0063875383
2469.72314,0.0062690787
2468.43750,0.0061891172
2467.15186,0.0061567430
2465.86621,0.0061452431
2464.58057,0.0061274688
2463.29492,0.0061146314
2462.00928,0.0061359489
2460.72363,0.0061799274
2459.43799,0.0061916639
2458.15234,0.0061385748
2456.86670,0.0060462207
2455.58105,0.0059589525
2454.29541,0.0058923773
2453.00977,0.0058432338
2451.72412,0.0058254455
2450.43848,0.0058714915
2449.15283,0.0059860107
2447.86719,0.0061039198
2446.58154,0.0061324574
2445.29590,0.0060542268
2444.01025,0.0059518400
2442.72461,0.0059084888
2441.43896,0.0059211636
2440.15332,0.0059456206
2438.86768,0.0059748297
2437.58203,0.0060179518
2436.29639,0.0060442789
2435.01074,0.0060125450
2433.72510,0.0059360946
2432.43945,0.0058685788
2431.15381,0.0058354936
2429.86816,0.0058193062
2428.58252,0.0058042221
2427.29688,0.0057975580
2426.01123,0.0058060316
2424.72559,0.0058185454
2423.43994,0.0058253147
2422.15430,0.0058320570
2420.86865,0.0058397441
2419.58301,0.0058250781
2418.29736,0.0057660784
2417.01172,0.0056830095
2415.72607,0.0056311362
2414.44043,0.0056337584
2413.15479,0.0056431731
2411.86914,0.0055970466
2410.58350,0.0055101304
2409.29785,0.0054733763
2408.01221,0.0055402014
2406.72656,0.0056482344
2405.44092,0.0056927404
2404.15527,0.0056561022
2402.86963,0.0056165559
2401.58398,0.0056335749
2400.29834,0.0056748274
2399.01270,0.0056642052
2397.72705,0.0055605476
2396.44141,0.0053860391
2395.15576,0.0052090073
2393.87012,0.0051087840
2392.58447,0.0051257047
2391.29883,0.0052263243
2390.01318,0.0053244261
2388.72754,0.0053400709
2387.44189,0.0052467342
2386.15625,0.0050726142
2384.87061,0.0048690862
2383.58496,0.0046758582
2382.29932,0.0045072236
2381.01367,0.0043544206
2379.72803,0.0041844477
2378.44238,0.0039357771
2377.15674,0.0035417285
2375.87109,0.0029811673
2374.58545,0.0023052995
2373.29980,0.0016005761
2372.01416,0.0009263847
2370.72852,0.0003017022
2369.44287,-0.0002403106
2368.15723,-0.0005957450
2366.87158,-0.0006351395
2365.58594,-0.0003757535
2364.30029,-0.0001079311
2363.01465,-0.0002265467
2361.72900,-0.0008499360
2360.44336,-0.0016730966
2359.15771,-0.0022752564
2357.87207,-0.0024906849
2356.58643,-0.0023957528
2355.30078,-0.0020413771
2354.01514,-0.0013833152
2352.72949,-0.0004787818
2351.44385,0.0004113156
2350.15820,0.0010117919
2348.87256,0.0012113651
2347.58691,0.0010263220
2346.30127,0.0005315052
2345.01563,-0.0001126411
2343.72998,-0.0006641917
2342.44434,-0.0010134947
2341.15869,-0.0013246853
2339.87305,-0.0017463757
2338.58740,-0.0021362836
2337.30176,-0.0022230824
2336.01611,-0.0019544903
2334.73047,-0.0015753551
2333.44482,-0.0013611235
2332.15918,-0.0013365047
2330.87354,-0.0012829790
2329.58789,-0.0010083811
2328.30225,-0.0005848361
2327.01660,-0.0002708898
2325.73096,-0.0002201820
2324.44531,-0.0003163149
2323.15967,-0.0002832554
2321.87402,0.0000575224
2320.58838,0.0006332439
2319.30273,0.0012224754
2318.01709,0.0016679254
2316.73145,0.0019544328
2315.44580,0.0021394817
2314.16016,0.0022718862
2312.87451,0.0023730705
2311.58887,0.0024563414
2310.30322,0.0025442631
2309.01758,0.0026602000
2307.73193,0.0028038621
2306.44629,0.0029478841
2305.16064,0.0030657540
2303.87500,0.0031494966
2302.58936,0.0031927039
2301.30371,0.0031850378
2300.01807,0.0031439431
2298.73242,0.0031232666
2297.44678,0.0031561980
2296.16113,0.0032074377
2294.87549,0.0032212071
2293.58984,0.0032092112
2292.30420,0.0032496338
2291.01855,0.0033913516
2289.73291,0.0035861491
2288.44727,0.0037315018
2287.16162,0.0037676122
2285.87598,0.0037204314
2284.59033,0.0036611429
2283.30469,0.0036374400
2282.01904,0.0036448536
2280.73340,0.0036501526
2279.44775,0.0036339941
2278.16211,0.0036118587
2276.87646,0.0036151742
2275.59082,0.0036494476
2274.30518,0.0036799905
2273.01953,0.0036721851
2271.73389,0.0036392934
2270.44824,0.0036326889
2269.16260,0.0036819491
2267.87695,0.0037607451
2266.59131,0.0038144852
2265.30566,0.0038097319
2264.02002,0.0037535646
2262.73438,0.0036810087
2261.44873,0.0036287210
2260.16309,0.0036140517
2258.87744,0.0036331064
2257.59180,0.0036736210
2256.30615,0.0037206663
2255.02051,0.0037580817
2253.73486,0.0037777701
2252.44922,0.0037895201
2251.16357,0.0038052143
2249.87793,0.0038171485
2248.59229,0.0038074341
2247.30664,0.0037844284
2246.02100,0.0037876402
2244.73535,0.0038416190
2243.44971,0.0039023948
2242.16406,0.0038769550
2240.87842,0.0037239296
2239.59277,0.0035284443
2238.30713,0.0034337484
2237.02148,0.0034807937
2235.73584,0.0035578047
2234.45020,0.0035373177
2233.16455,0.0034275644
2231.87891,0.0033480462
2230.59326,0.0033802900
2229.30762,0.0034907619
2228.02197,0.0035832778
2226.73633,0.0035932488
2225.45068,0.0035319936
2224.16504,0.0034639370
2222.87939,0.0034425936
2221.59375,0.0034625020
2220.30811,0.0034787324
2219.02246,0.0034699126
2217.73682,0.0034633626
2216.45117,0.0034858296
2215.16553,0.0035175101
2213.87988,0.0035144305
2212.59424,0.0034741135
2211.30859,0.0034483338
2210.02295,0.0034824114
2208.73730,0.0035567610
2207.45166,0.0036096140
2206.16602,0.0036132687
2204.88037,0.0036055162
2203.59473,0.0036388757
2202.30908,0.0037142434
2201.02344,0.0037837496
2199.73779,0.0038085047
2198.45215,0.0037954743
2197.16650,0.0037679253
2195.88086,0.0037198570
2194.59521,0.0036249100
2193.30957,0.0034895090
2192.02393,0.0033655504
2190.73828,0.0032941555
2189.45264,0.0032620225
2188.16699,0.0032292658
2186.88135,0.0031843076
2185.59570,0.0031564848
2184.31006,0.0031871237
2183.02441,0.0032995543
2181.73877,0.0034759922
2180.45313,0.0036489258
2179.16748,0.0037339819
2177.88184,0.0036915301
2176.59619,0.0035611193
2175.31055,0.0034294431
2174.02490,0.0033591331
2172.73926,0.0033468984
2171.45361,0.0033511505
2170.16797,0.0033519852
2168.88232,0.0033622636
2167.59668,0.0033802378
2166.31104,0.0033700899
2165.02539,0.0033184395
2163.73975,0.0032731853
2162.45410,0.0032874520
2161.16846,0.0033492465
2159.88281,0.0034120404
2158.59717,0.0034691822
2157.31152,0.0035471045
2156.02588,0.0036338111
2154.74023,0.0036705143
2153.45459,0.0036273899
2152.16895,0.0035432419
2150.88330,0.0034785755
2149.59766,0.0034602317
2148.31201,0.0034888566
2147.02637,0.0035698365
2145.74072,0.0036986314
2144.45508,0.0038283258
2143.16943,0.0038881858
2141.88379,0.0038530573
2140.59814,0.0037783184
2139.31250,0.0037487866
2138.02686,0.0037950824
2136.74121,0.0038684141
2135.45557,0.0038990777
2134.16992,0.0038701121
2132.88428,0.0038273332
2131.59863,0.0038208568
2130.31299,0.0038473904
2129.02734,0.0038562440
2127.74170,0.0038159736
2126.45605,0.0037563324
2125.17041,0.0037281073
2123.88477,0.0037343737
2122.59912,0.0037344780
2121.31348,0.0037201701
2120.02783,0.0037428853
2118.74219,0.0038382234
2117.45654,0.0039544804
2116.17090,0.0039972719
2114.88525,0.0039401916
2113.59961,0.0038607360
2112.31396,0.0038562701
2111.02832,0.0039455201
2109.74268,0.0040637129
2108.45703,0.0041381624
2107.17139,0.0041541299
2105.88574,0.0041520651
2104.60010,0.0041792463
2103.31445,0.0042474936
2102.02881,0.0043277522
2100.74316,0.0043817451
2099.45752,0.0044026645
2098.17188,0.0044194008
2096.88623,0.0044570337
2095.60059,0.0045069098
2094.31494,0.0045416984
2093.02930,0.0045427969
2091.74365,0.0045052096
2090.45801,0.0044454737
2089.17236,0.0044098562
2087.88672,0.0044447677
2086.60107,0.0045418553
2085.31543,0.0046401685
2084.02979,0.0046928143
2082.74414,0.0047048512
2081.45850,0.0047087502
2080.17285,0.0047347886
2078.88721,0.0048037246
2077.60156,0.0049130935
2076.31592,0.0050241128
2075.03027,0.0050913924
2073.74463,0.0051081292
2072.45898,0.0051071863
2071.17334,0.0051149130
2069.88770,0.0051209112
2068.60205,0.0050996169
2067.31641,0.0050503793
2066.03076,0.0050049177
2064.74512,0.0049860380
2063.45947,0.0049700392
2062.17383,0.0049207639
2060.88818,0.0048605516
2059.60254,0.0048750546
2058.31689,0.0050228816
2057.03125,0.0052538607
2055.74561,0.0054427590
2054.45996,0.0055034449
2053.17432,0.0054567042
2051.88867,0.0053859605
2050.60303,0.0053527551
2049.31738,0.0053666974
2048.03174,0.0054140049
2046.74609,0.0054772818
2045.46045,0.0055275117
2044.17480,0.0055275378
2042.88916,0.0054600337
2041.60352,0.0053485353
2040.31787,0.0052474681
2039.03223,0.0052149543
2037.74658,0.0052820016
2036.46094,0.0054242271
2035.17529,0.0055667609
2033.88965,0.0056443005
2032.60400,0.0056672473
2031.31836,0.0057096574
2030.03271,0.0058201719
2028.74707,0.0059602121
2027.46143,0.0060467455
2026.17578,0.0060484260
2024.89014,0.0060152225
2023.60449,0.0060113119
2022.31885,0.0060329656
2021.03320,0.0060143825
2019.74756,0.0059140516
2018.46191,0.0057821590
2017.17627,0.0057310080
2015.89063,0.0058209850
2014.60498,0.0059865089
2013.31934,0.0061015049
2012.03369,0.0061102207
2010.74805,0.0060646487
2009.46240,0.0060444362
2008.17676,0.0060678502
2006.89111,0.0060930513
2005.60547,0.0060882210
2004.31982,0.0060628369
2003.03418,0.0060360627
2001.74854,0.0060081878
2000.46289,0.0059855115
1999.17725,0.0060023614
1997.89160,0.0060800840
1996.60596,0.0061697662
1995.32031,0.0061757788
1994.03467,0.0060509723
1992.74902,0.0058578481
1991.46338,0.0057235062
1990.17773,0.0057286471
1988.89209,0.0058472478
1987.60645,0.0059959837
1986.32080,0.0061111394
1985.03516,0.0061808461
1983.74951,0.0062306058
1982.46387,0.0062857294
1981.17822,0.0063390997
1979.89258,0.0063622152
1978.60693,0.0063410965
1977.32129,0.0062941075
1976.03564,0.0062551331
1974.75000,0.0062492779
1973.46436,0.0062718093
1972.17871,0.0062740156
1970.89307,0.0061868071
1969.60742,0.0059880577
1968.32178,0.0057520708
1967.03613,0.0056113373
1965.75049,0.0056434348
1964.46484,0.0058021485
1963.17920,0.0059800530
1961.89355,0.0061104307
1960.60791,0.0061812927
1959.32227,0.0061933184
1958.03662,0.0061350302
1956.75098,0.0060066134
1955.46533,0.0058520753
1954.17969,0.0057437555
1952.89404,0.0057277810
1951.60840,0.0057846773
1950.32275,0.0058442564
1949.03711,0.0058385371
1947.75146,0.0057522547
1946.46582,0.0056278319
1945.18018,0.0055204332
1943.89453,0.0054645943
1942.60889,0.0054883715
1941.32324,0.0056203064
1940.03760,0.0058371988
1938.75195,0.0060462737
1937.46631,0.0061555351
1936.18066,0.0061409636
1934.89502,0.0060480847
1933.60938,0.0059448071
1932.32373,0.0058772638
1931.03809,0.0058574020
1929.75244,0.0058730128
1928.46680,0.0058965231
1927.18115,0.0058866050
1925.89551,0.0057976106
1924.60986,0.0056201220
1923.32422,0.0054196143
1922.03857,0.0052898368
1920.75293,0.0052417559
1919.46729,0.0052053919
1918.18164,0.0051607522
1916.89600,0.0051788017
1915.61035,0.0052920114
1914.32471,0.0054098638
1913.03906,0.0054258788
1911.75342,0.0053303479
1910.46777,0.0052021961
1909.18213,0.0051306291
1907.89648,0.0051509291
1906.61084,0.0052440618
1905.32520,0.0053641810
1904.03955,0.0054540299
1902.75391,0.0054637035
1901.46826,0.0053877425
1900.18262,0.0052704462
1898.89697,0.0051462930
1897.61133,0.0050034518
1896.32568,0.0048416262
1895.04004,0.0047265189
1893.75439,0.0047134082
1892.46875,0.0047406242
1891.18311,0.0047010831
1889.89746,0.0046061571
1888.61182,0.0045878440
1887.32617,0.0047078081
1886.04053,0.0048727510
1884.75488,0.0049828957
1883.46924,0.0050372067
1882.18359,0.0050726142
1880.89795,0.0050844783
1879.61230,0.0050404277
1878.32666,0.0049415259
1877.04102,0.0048422809
1875.75537,0.0048111849
1874.46973,0.0048544006
1873.18408,0.0048661805
1871.89844,0.0046791285
1870.61279,0.0041998946
1869.32715,0.0035635203
1868.04150,0.0031612043
1866.75586,0.0032899822
1865.47021,0.0037921576
1864.18457,0.0043115686
1862.89893,0.0046384684
1861.61328,0.0047395248
1860.32764,0.0046791285
1859.04199,0.0045527113
1857.75635,0.0044418387
1856.47070,0.0043911845
1855.18506,0.0044067958
1853.89941,0.0044679912
1852.61377,0.0045358394
1851.32813,0.0045556673
1850.04248,0.0044711824
1848.75684,0.0042495066
1847.47119,0.0038913980
1846.18555,0.0034471075
1844.89990,0.0030794144
1843.61426,0.0030544919
1842.32861,0.0034379228
1841.04297,0.0039334521
1839.75732,0.0042477287
1838.47168,0.0043340791
1837.18604,0.0043142876
1835.90039,0.0043072021
1834.61475,0.0042999084
1833.32910,0.0041769468
1832.04346,0.0038599265
1830.75781,0.0034251120
1829.47217,0.0031150798
1828.18652,0.0031050942
1826.90088,0.0032761584
1825.61523,0.0034316345
1824.32959,0.0035541509
1823.04395,0.0037335381
1821.75830,0.0039684563
1820.47266,0.0041566649
1819.18701,0.0042335615
1817.90137,0.0042366716
1816.61572,0.0042406968
1815.33008,0.0042478074
1814.04443,0.0041792728
1812.75879,0.0039862725
1811.47314,0.0037415798
1810.18750,0.0035955978
1808.90186,0.0036255629
1807.61621,0.0037658366
1806.33057,0.0038952122
1805.04492,0.0039102044
1803.75928,0.0037430162
1802.47363,0.0034073447
1801.18799,0.0030484183
1799.90234,0.0028649361
1798.61670,0.0029052226
1797.33105,0.0030249835
1796.04541,0.0030674746
1794.75977,0.0029800986
1793.47412,0.0028225949
1792.18848,0.0027864585
1790.90283,0.0030817869
1789.61719,0.0036343855
1788.33154,0.0041534244
1787.04590,0.0044620545
1785.76025,0.0045632534
1784.47461,0.0045466688
1783.18896,0.0044819051
1781.90332,0.0044039194
1780.61768,0.0043821372
1779.33203,0.0044923406
1778.04639,0.0046846760
1776.76074,0.0047941711
1775.47510,0.0046878946
1774.18945,0.0043522506
1772.90381,0.0039610113
1771.61816,0.0039057902
1770.33252,0.0044451859
1769.04688,0.0053759222
1767.76123,0.0063650524
1766.47559,0.0072103427
1765.18994,0.0078148972
1763.90430,0.0081943255
1762.61865,0.0085053127
1761.33301,0.0089612072
1760.04736,0.0096166339
1758.76172,0.0103605837
1757.47607,0.0111589506
1756.19043,0.0120454887
1754.90479,0.0129298130
1753.61914,0.0136406757
1752.33350,0.0141175315
1751.04785,0.0144749954
1749.76221,0.0149914064
1748.47656,0.0159350038
1747.19092,0.0172794294
1745.90527,0.0187925380
1744.61963,0.0202920530
1743.33398,0.0216975138
1742.04834,0.0230134930
1740.76270,0.0243182555
1739.47705,0.0256419685
1738.19141,0.0268194154
1736.90576,0.0276372544
1735.62012,0.0280960742
1734.33447,0.0284842495
1733.04883,0.0292245187
1731.76318,0.0303500462
1730.47754,0.0315516181
1729.19189,0.0327036604
1727.90625,0.0337481573
1726.62061,0.0345483832
1725.33496,0.0350079983
1724.04932,0.0351592079
1722.76367,0.0350987539
1721.47803,0.0348575450
1720.19238,0.0343326107
1718.90674,0.0333561935
1717.62109,0.0319568589
1716.33545,0.0307446904
1715.04980,0.0303832218
1713.76416,0.0305865109
1712.47852,0.0307399966
1711.19287,0.0305491872
1709.90723,0.0299947578
1708.62158,0.0291659646
1707.33594,0.0281137228
1706.05029,0.0268578846
1704.76465,0.0255564395
1703.47900,0.0244232584
1702.19336,0.0233887136
1700.90771,0.0221266430
1699.62207,0.0205227248
1698.33643,0.0190574359
1697.05078,0.0181992408
1695.76514,0.0178750027
1694.47949,0.0178030450
1693.19385,0.0176767912
1691.90820,0.0172538925
1690.62256,0.0164322890
1689.33691,0.0152938142
1688.05127,0.0140802022
1686.76563,0.0129416808
1685.47998,0.0117958412
1684.19434,0.0106483754
1682.90869,0.0099143414
1681.62305,0.0097586466
1680.33740,0.0098314825
1679.05176,0.0099221272
1677.76611,0.0099216243
1676.48047,0.0096411947
1675.19482,0.0089621320
1673.90918,0.0081155384
1672.62354,0.0074620019
1671.33789,0.0070470092
1670.05225,0.0068280385
1668.76660,0.0070046801
1667.48096,0.0075769937
1666.19531,0.0080390861
1664.90967,0.0080072861
1663.62402,0.0075765196
1662.33838,0.0072691701
1661.05273,0.0075400118
1659.76709,0.0081273010
1658.48145,0.0084776757
1657.19580,0.0084138541
1655.91016,0.0080751609
1654.62451,0.0076370039
1653.33887,0.0072052358
1652.05322,0.0068573332
1650.76758,0.0065665753
1649.48193,0.0062230169
1648.19629,0.0058904355
1646.91064,0.0059530474
1645.62500,0.0067437673
1644.33936,0.0077331224
1643.05371,0.0082714120
1641.76807,0.0083448440
1640.48242,0.0081769684
1639.19678,0.0079030404
1637.91113,0.0075512058
1636.62549,0.0072686174
1635.33984,0.0075059831
1634.05420,0.0083617317
1632.76855,0.0092031490
1631.48291,0.0096480502
1630.19727,0.0097183529
1628.91162,0.0095389653
1627.62598,0.0092418324
1626.34033,0.0088938000
1625.05469,0.0085000871
1623.76904,0.0081843538
1622.48340,0.0082061961
1621.19775,0.0085713658
1619.91211,0.0089659113
1618.62646,0.0091688558
1617.34082,0.0092039946
1616.05518,0.0092182728
1614.76953,0.0092527010
1613.48389,0.0091795912
1612.19824,0.0088797174
1610.91260,0.0083318613
1609.62695,0.0076847440
1608.34131,0.0072364784
1607.05566,0.0071472861
1605.77002,0.0072304243
1604.48438,0.0071875239
1603.19873,0.0069524641
1601.91309,0.0067191860
1600.62744,0.0066618258
1599.34180,0.0067181340
1598.05615,0.0067041223
1596.77051,0.0065458147
1595.48486,0.0063139633
1594.19922,0.0060818950
1592.91357,0.0058438368
1591.62793,0.0056037595
1590.34229,0.0054413960
1589.05664,0.0054254592
1587.77100,0.0055183885
1586.48535,0.0056251311
1585.19971,0.0056866291
1583.91406,0.0056738309
1582.62842,0.0055364002
1581.34277,0.0052169715
1580.05713,0.0046918197
1578.77148,0.0039625005
1577.48584,0.0031009750
1576.20020,0.0024383012
1574.91455,0.0023779897
1573.62891,0.0026789529
1572.34326,0.0027853642
1571.05762,0.0024782615
1569.77197,0.0019336314
1568.48633,0.0015794795
1567.20068,0.0015706983
1565.91504,0.0016384588
1564.62939,0.0015640995
1563.34375,0.0013032932
1562.05811,0.0007870767
1560.77246,-0.0001923937
1559.48682,-0.0016887230
1558.20117,-0.0025951685
1556.91553,-0.0018484091
1555.62988,-0.0006729278
1554.34424,0.0001190141
1553.05859,0.0005018305
1551.77295,0.0005738568
1550.48730,0.0004987206
1549.20166,0.0004614813
1547.91602,0.0004636321
1546.63037,0.0002781820
1545.34473,-0.0003258856
1544.05908,-0.0013727357
1542.77344,-0.0026523923
1541.48779,-0.0037969269
1540.20215,-0.0041181808
1538.91650,-0.0031841290
1537.63086,-0.0019320701
1536.34521,-0.0011648067
1535.05957,-0.0009313098
1533.77393,-0.0009827612
1532.48828,-0.0009306382
1531.20264,-0.0006213363
1529.91699,-0.0003309037
1528.63135,-0.0003604420
1527.34570,-0.0007906656
1526.06006,-0.0014704196
1524.77441,-0.0021639478
1523.48877,-0.0027558077
1522.20313,-0.0031585854
1520.91748,-0.0032351599
1519.63184,-0.0031009656
1518.34619,-0.0030281208
1517.06055,-0.0029510467
1515.77490,-0.0025852874
1514.48926,-0.0019472747
1513.20361,-0.0014079311
1511.91797,-0.0012977936
1510.63232,-0.0017381251
1509.34668,-0.0026972601
1508.06104,-0.0038780579
1506.77539,-0.0042279656
1505.48975,-0.0029881201
1504.20410,-0.0014934312
1502.91846,-0.0006511133
1501.63281,-0.0003789605
1500.34717,-0.0004775406
1499.06152,-0.0007691156
1497.77588,-0.0009877717
1496.49023,-0.0008270453
1495.20459,-0.0003260926
1493.91895,0.0000831019
1492.63330,0.0000385200
1491.34766,-0.0005569159
1490.06201,-0.0014285725
1488.77637,-0.0018316028
1487.49072,-0.0012891217
1486.20508,-0.0002869288
1484.91943,0.0005230302
1483.63379,0.0009126880
1482.34814,0.0009569966
1481.06250,0.0008495278
1479.77686,0.0007439784
1478.49121,0.0006298739
1477.20557,0.0003636689
1475.91992,-0.0001809570
1474.63428,-0.0009306899
1473.34863,-0.0014371383
1472.06299,-0.0011032554
1470.77734,-0.0000610348
1469.49170,0.0009347640
1468.20605,0.0014783760
1466.92041,0.0015869358
1465.63477,0.0014788435
1464.34912,0.0014709474
1463.06348,0.0016755133
1461.77783,0.0018308596
1460.49219,0.0016219334
1459.20654,0.0009262551
1457.92090,0.0000320739
1456.63525,-0.0001085522
1455.34961,0.0009143223
1454.06396,0.0022058999
1452.77832,0.0032235542
1451.49268,0.0039458075
1450.20703,0.0044130199
1448.92139,0.0047010570
1447.63574,0.0050044726
1446.35010,0.0055125682
1445.06445,0.0062014060
1443.77881,0.0069060135
1442.49316,0.0074898382
1441.20752,0.0078598624
1439.92188,0.0079496754
1438.63623,0.0077706734
1437.35059,0.0075019002
1436.06494,0.0074797524
1434.77930,0.0078310799
1433.49365,0.0082836803
1432.20801,0.0086054793
1430.92236,0.0088115847
1429.63672,0.0090528876
1428.35107,0.0094181094
1427.06543,0.0098104849
1425.77979,0.0100806644
1424.49414,0.0102019180
1423.20850,0.0102646248
1421.92285,0.0103194667
1420.63721,0.0103213219
1419.35156,0.0103193866
1418.06592,0.0105976555
1416.78027,0.0113056647
1415.49463,0.0121701397
1414.20898,0.0128867188
1412.92334,0.0133516956
1411.63770,0.0136084622
1410.35205,0.0137711577
1409.06641,0.0139225256
1407.78076,0.0140539194
1406.49512,0.0141285760
1405.20947,0.0141716860
1403.92383,0.0142346490
1402.63818,0.0142691806
1401.35254,0.0141338715
1400.06689,0.0137392012
1398.78125,0.0131579135
1397.49561,0.0126128960
1396.20996,0.0123313367
1394.92432,0.0124245575
1393.63867,0.0128259258
1392.35303,0.0132787218
1391.06738,0.0135152554
1389.78174,0.0134261530
1388.49609,0.0130877169
1387.21045,0.0127507458
1385.92480,0.0126672378
1384.63916,0.0128112631
1383.35352,0.0129656037
1382.06787,0.0130155068
1380.78223,0.0130069181
1379.49658,0.0129978750
1378.21094,0.0129314931
1376.92529,0.0127091100
1375.63965,0.0123770386
1374.35400,0.0121726952
1373.06836,0.0122840684
1371.78271,0.0125928316
1370.49707,0.0128591210
1369.21143,0.0130233224
1367.92578,0.0131655168
1366.64014,0.0132881152
1365.35449,0.0132775195
1364.06885,0.0131021505
1362.78320,0.0129607758
1361.49756,0.0131154368
1360.21191,0.0135496790
1358.92627,0.0140260858
1357.64063,0.0144074252
1356.35498,0.0147235654
1355.06934,0.0150589347
1353.78369,0.0154538956
1352.49805,0.0158682764
1351.21240,0.0162156578
1349.92676,0.0164376125
1348.64111,0.0165528283
1347.35547,0.0166361202
1346.06982,0.0167480800
1344.78418,0.0168725271
1343.49854,0.0169165283
1342.21289,0.0167869851
1340.92725,0.0165068191
1339.64160,0.0162729248
1338.35596,0.0163196325
1337.07031,0.0166687462
1335.78467,0.0171397869
1334.49902,0.0175753199
1333.21338,0.0179310311
1331.92773,0.0182256941
1330.64209,0.0184824970
1329.35645,0.0186926685
1328.07080,0.0188214052
1326.78516,0.0188613608
1325.49951,0.0188617129
1324.21387,0.0188660379
1322.92822,0.0188430324
1321.64258,0.0187305305
1320.35693,0.0185457077
1319.07129,0.0184006058
1317.78564,0.0183821078
1316.50000,0.0184502732
1315.21436,0.0185048617
1313.92871,0.0185176693
1312.64307,0.0185435191
1311.35742,0.0186196268
1310.07178,0.0187131539
1308.78613,0.0187813714
1307.50049,0.0188346244
1306.21484,0.0189040788
1304.92920,0.0189793054
1303.64355,0.0190111883
1302.35791,0.0189642422
1301.07227,0.0188417863
1299.78662,0.0186796710
1298.50098,0.0185294449
1297.21533,0.0184309352
1295.92969,0.0183803514
1294.64404,0.0183348786
1293.35840,0.0182588454
1292.07275,0.0181561597
1290.78711,0.0180578958
1289.50146,0.0179916527
1288.21582,0.0179669671
1286.93018,0.0179747641
1285.64453,0.0179903582
1284.35889,0.0179884955
1283.07324,0.0179679636
1281.78760,0.0179631896
1280.50195,0.0180152338
1279.21631,0.0181240682
1277.93066,0.0182425939
1276.64502,0.0183215644
1275.35938,0.0183472168
1274.07373,0.0183327980
1272.78809,0.0183062013
1271.50244,0.0183244813
1270.21680,0.0184651557
1268.93115,0.0187566411
1267.64551,0.0191327669
1266.35986,0.0194916241
1265.07422,0.0197919011
1263.78857,0.0200691782
1262.50293,0.0203782897
1261.21729,0.0207547937
1259.93164,0.0212153383
1258.64600,0.0217453800
1257.36035,0.0222881995
1256.07471,0.0227962025
1254.78906,0.0232966077
1253.50342,0.0238702744
1252.21777,0.0245564431
1250.93213,0.0253078472
1249.64648,0.0260517318
1248.36084,0.0267647617
1247.07520,0.0274712164
1245.78955,0.0281869657
1244.50391,0.0288960449
1243.21826,0.0295737479
1241.93262,0.0302083008
1240.64697,0.0307913180
1239.36133,0.0313143507
1238.07568,0.0317908302
1236.79004,0.0322670788
1235.50439,0.0327846073
1234.21875,0.0333286375
1232.93311,0.0338345319
1231.64746,0.0342443176
1230.36182,0.0345449075
1229.07617,0.0347556286
1227.79053,0.0349001251
1226.50488,0.0349923447
1225.21924,0.0350326374
1223.93359,0.0350051671
1222.64795,0.0348831266
1221.36230,0.0346415639
1220.07666,0.0342754126
1218.79102,0.0338179655
1217.50537,0.0333420224
1216.21973,0.0329185128
1214.93408,0.0325585492
1213.64844,0.0322006121
1212.36279,0.0317690782
1211.07715,0.0312461089
1209.79150,0.0306755397
1208.50586,0.0301004760
1207.22021,0.0295211282
1205.93457,0.0289242398
1204.64893,0.0283297412
1203.36328,0.0277773626
1202.07764,0.0272712205
1200.79199,0.0267666336
1199.50635,0.0262179486
1198.22070,0.0256205481
1196.93506,0.0250033513
1195.64941,0.0244025569
1194.36377,0.0238500349
1193.07813,0.0233612582
1191.79248,0.0229091868
1190.50684,0.0224249568
1189.22119,0.0218549632
1187.93555,0.0212210994
1186.64990,0.0206065904
1185.36426,0.0200695843
1184.07861,0.0195772424
1182.79297,0.0190406665
1181.50732,0.0184112731
1180.22168,0.0177269168
1178.93604,0.0170551594
1177.65039,0.0164168589
1176.36475,0.0157873072
1175.07910,0.0151546188
1173.79346,0.0145394998
1172.50781,0.0139632067
1171.22217,0.0134367784
1169.93652,0.0129927285
1168.65088,0.0126797101
1167.36523,0.0124967778
1166.07959,0.0123602329
1164.79395,0.0121703800
1163.50830,0.0119042713
1162.22266,0.0116246063
1160.93701,0.0114110224
1159.65137,0.0113054262
1158.36572,0.0113084819
1157.08008,0.0113923140
1155.79443,0.0115166195
1154.50879,0.0116506368
1153.22314,0.0117857605
1151.93750,0.0119230021
1150.65186,0.0120669147
1149.36621,0.0122450599
1148.08057,0.0125031173
1146.79492,0.0128502967
1145.50928,0.0132163512
1144.22363,0.0134925563
1142.93799,0.0136178127
1141.65234,0.0136125237
1140.36670,0.0135394232
1139.08105,0.0134479385
1137.79541,0.0133525496
1136.50977,0.0132486159
1135.22412,0.0131429983
1133.93848,0.0130729116
1132.65283,0.0130956676
1131.36719,0.0132407425
1130.08154,0.0134546673
1128.79590,0.0136086764
1127.51025,0.0135987680
1126.22461,0.0134412106
1124.93896,0.0132404231
1123.65332,0.0130687235
1122.36768,0.0129231196
1121.08203,0.0127934003
1119.79639,0.0126985814
1118.51074,0.0126378397
1117.22510,0.0125681022
1115.93945,0.0124612926
1114.65381,0.0123401526
1113.36816,0.0122356871
1112.08252,0.0121449819
1110.79688,0.0120432535
1109.51123,0.0119028883
1108.22559,0.0116961086
1106.93994,0.0114155142
1105.65430,0.0110959560
1104.36865,0.0108025866
1103.08301,0.0105931461
1101.79736,0.0104894722
1100.51172,0.0104561392
1099.22607,0.0104102148
1097.94043,0.0102923485
1096.65479,0.0101376036
1095.36914,0.0100418795
1094.08350,0.0100508351
1092.79785,0.0101166712
1091.51221,0.0101686064
1090.22656,0.0101902569
1088.94092,0.0102208136
1087.65527,0.0103118587
1086.36963,0.0104818344
1085.08398,0.0106907422
1083.79834,0.0108641852
1082.51270,0.0109592145
1081.22705,0.0109994365
1079.94141,0.0110261729
1078.65576,0.0110369259
1077.37012,0.0109958779
1076.08447,0.0108876489
1074.79883,0.0107332207
1073.51318,0.0105718737
1072.22754,0.0104474155
1070.94189,0.0104009602
1069.65625,0.0104444185
1068.37061,0.0105416374
1067.08496,0.0106361182
1065.79932,0.0107056806
1064.51367,0.0107783843
1063.22803,0.0108957710
1061.94238,0.0110723209
1060.65674,0.0112883430
1059.37109,0.0114908088
1058.08545,0.0115941381
1056.79980,0.0115188789
1055.51416,0.0112700379
1054.22852,0.0109638069
1052.94287,0.0107355304
1051.65723,0.0106195929
1050.37158,0.0105456691
1049.08594,0.0104475478
1047.80029,0.0103399316
1046.51465,0.0102739800
1045.22900,0.0102494368
1043.94336,0.0102039855
1042.65771,0.0100942040
1041.37207,0.0099603208
1040.08643,0.0098839924
1038.80078,0.0098831719
1037.51514,0.0098803109
1036.22949,0.0097914757
1034.94385,0.0096283592
1033.65820,0.0094828447
1032.37256,0.0094169714
1031.08691,0.0093979519
1029.80127,0.0093556037
1028.51563,0.0092762625
1027.22998,0.0092116091
1025.94434,0.0091987057
1024.65869,0.0092030428
1023.37305,0.0091608986
1022.08740,0.0090633817
1020.80176,0.0089739971
1019.51611,0.0089576663
1018.23047,0.0090092514
1016.94482,0.0090643065
1015.65918,0.0090738479
1014.37354,0.0090491083
1013.08789,0.0090303682
1011.80225,0.0090320325
1010.51660,0.0090332758
1009.23096,0.0090147490
1007.94531,0.0089924959
1006.65967,0.0090093045
1005.37402,0.0090870382
1004.08838,0.0091839796
1002.80273,0.0092201494
1001.51709,0.0091597624
1000.23145,0.0090530720
998.94580,0.0089781731
997.66016,0.0089591723
996.37451,0.0089583276
995.08887,0.0089379270
993.80322,0.0089039197
992.51758,0.0088890977
991.23193,0.0089042373
989.94629,0.0089140665
988.66064,0.0088777887
987.37500,0.0088073844
986.08936,0.0087522827
984.80371,0.0087160459
983.51807,0.0086410455
982.23242,0.0085055772
980.94678,0.0083852718
979.66113,0.0083659021
978.37549,0.0084291622
977.08984,0.0084775966
975.80420,0.0084559256
974.51855,0.0083974386
973.23291,0.0083563747
971.94727,0.0083410703
970.66162,0.0083212266
969.37598,0.0082645509
968.09033,0.0081623560
966.80469,0.0080500823
965.51904,0.0080022495
964.23340,0.0080676712
962.94775,0.0082011838
961.66211,0.0082961600
960.37646,0.0082851844
959.09082,0.0081829820
957.80518,0.0080453092
956.51953,0.0079397634
955.23389,0.0079402905
953.94824,0.0080768755
952.66260,0.0082802242
951.37695,0.0084263645
950.09131,0.0084485346
948.80566,0.0083785160
947.52002,0.0082882978
946.23438,0.0082254009
944.94873,0.0081956713
943.66309,0.0081838528
942.37744,0.0081856474
941.09180,0.0082115242
939.80615,0.0082440265
938.52051,0.0082146637
937.23486,0.0080575980
935.94922,0.0077835615
934.66357,0.0074800677
933.37793,0.0072507965
932.09229,0.0071548647
930.80664,0.0071726819
929.52100,0.0072165537
928.23535,0.0071961312
926.94971,0.0070910533
925.66406,0.0069577764
924.37842,0.0068750842
923.09277,0.0068775048
921.80713,0.0069058822
920.52148,0.0068226736
919.23584,0.0065294430
917.95020,0.0060948101
916.66455,0.0057156109
915.37891,0.0055191484
914.09326,0.0054484215
912.80762,0.0053740093
911.52197,0.0052688485
910.23633,0.0052160020
908.95068,0.0052626119
907.66504,0.0053263130
906.37939,0.0052751629
905.09375,0.0050741592
903.80811,0.0048283292
902.52246,0.0046778470
901.23682,0.0046689501
899.95117,0.0047387923
