3999.64014,0.0032314039
3998.35449,0.0027838792
3997.06885,0.0024877382
3995.78320,0.0025670209
3994.49756,0.0028323657
3993.21191,0.0029324559
3991.92627,0.0027311004
3990.64063,0.0023778595
3989.35498,0.0020849342
3988.06934,0.0019191487
3986.78369,0.0018303397
3985.49805,0.0018411280
3984.21240,0.0020870671
3982.92676,0.0025921757
3981.64111,0.0030918242
3980.35547,0.0032285093
3979.06982,0.0029378503
3977.78418,0.0025066657
3976.49854,0.0022491959
3975.21289,0.0022499245
3973.92725,0.0024236715
3972.64160,0.0026805415
3971.35596,0.0029600034
3970.07031,0.0031916089
3968.78467,0.0033291082
3967.49902,0.0034033007
3966.21338,0.0034637284
3964.92773,0.0034757834
3963.64209,0.0033406378
3962.35645,0.0030383037
3961.07080,0.0026982534
3959.78516,0.0024835204
3958.49951,0.0024283309
3957.21387,0.0024522804
3955.92822,0.0024818282
3954.64258,0.0024952102
3953.35693,0.0024871656
3952.07129,0.0024686551
3950.78564,0.0024889095
3949.50000,0.0025788168
3948.21436,0.0026354319
3946.92871,0.0024473863
3945.64307,0.0019399236
3944.35742,0.0013154184
3943.07178,0.0008922734
3941.78613,0.0008209206
3940.50049,0.0009605249
3939.21484,0.0010812558
3937.92920,0.0011102693
3936.64355,0.0010944129
3935.35791,0.0010622604
3934.07227,0.0010188493
3932.78662,0.0010075106
3931.50098,0.0010981759
3930.21533,0.0013079407
3928.92969,0.0015768036
3927.64404,0.0018344468
3926.35840,0.0020605891
3925.07275,0.0022860162
3923.78711,0.0025604330
3922.50146,0.0028956064
3921.21582,0.0032232152
3919.93018,0.0034139191
3918.64453,0.0033502900
3917.35889,0.0030509727
3916.07324,0.0027480326
3914.78760,0.0026983838
3913.50195,0.0028821081
3912.21631,0.0030551176
3910.93066,0.0030432567
3909.64502,0.0029064734
3908.35938,0.0028623042
3907.07373,0.0030734446
3905.78809,0.0034700953
3904.50244,0.0037295695
3903.21680,0.0035143523
3901.93115,0.0029226048
3900.64551,0.0024537120
3899.35986,0.0023676048
3898.07422,0.0024966160
3896.78857,0.0026509804
3895.50293,0.0028056074
3894.21729,0.0029453302
3892.93164,0.0029870055
3891.64600,0.0028643887
3890.36035,0.0026825992
3889.07471,0.0027083077
3887.78906,0.0030864796
3886.50342,0.0036638316
3885.21777,0.0040587224
3883.93213,0.0039668363
3882.64648,0.0035296970
3881.36084,0.0030796751
3880.07520,0.0027254217
3878.78955,0.0025290831
3877.50391,0.0026962219
3876.21826,0.0032816357
3874.93262,0.0040074345
3873.64697,0.0044729607
3872.36133,0.0045139720
3871.07568,0.0043143923
3869.79004,0.0040795999
3868.50439,0.0038521953
3867.21875,0.0036814264
3865.93311,0.0036235789
3864.64746,0.0035700193
3863.36182,0.0033165351
3862.07617,0.0028426317
3860.79053,0.0024044090
3859.50488,0.0022188572
3858.21924,0.0022864065
3856.93359,0.0024890138
3855.64795,0.0026681959
3854.36230,0.0026210558
3853.07666,0.0021538415
3851.79102,0.0014491559
3850.50537,0.0010230786
3849.21973,0.0009810984
3847.93408,0.0011739867
3846.64844,0.0015176509
3845.36279,0.0019576312
3844.07715,0.0024215109
3842.79150,0.0028425013
3841.50586,0.0031457420
3840.22021,0.0031902529
3838.93457,0.0028557901
3837.64893,0.0023423068
3836.36328,0.0021797270
3835.07764,0.0025835303
3833.79199,0.0032136703
3832.50635,0.0036739083
3831.22070,0.0037875618
3829.93506,0.0035517239
3828.64941,0.0030584547
3827.36377,0.0024446528
3826.07813,0.0018555819
3824.79248,0.0014228986
3823.50684,0.0012323657
3822.22119,0.0013293874
3820.93555,0.0017304511
3819.64990,0.0022994962
3818.36426,0.0026530377
3817.07861,0.0024072984
3815.79297,0.0014614932
3814.50732,0.0002555697
3813.22168,-0.0004505445
3811.93604,-0.0004331151
3810.65039,-0.0000562724
3809.36475,0.0003052510
3808.07910,0.0005290430
3806.79346,0.0007386108
3805.50781,0.0011655511
3804.22217,0.0018444293
3802.93652,0.0024481153
3801.65088,0.0024769597
3800.36523,0.0017601320
3799.07959,0.0008937520
3797.79395,0.0004711471
3796.50830,0.0003849655
3795.22266,0.0003717522
3793.93701,0.0004677265
3792.65137,0.0008133994
3791.36572,0.0013391764
3790.08008,0.0018198896
3788.79443,0.0020988500
3787.50879,0.0021946605
3786.22314,0.0022107393
3784.93750,0.0022086061
3783.65186,0.0022100890
3782.36621,0.0022548162
3781.08057,0.0023755950
3779.79492,0.0025400189
3778.50928,0.0026895278
3777.22363,0.0027917214
3775.93799,0.0027881260
3774.65234,0.0025781658
3773.36670,0.0021560008
3772.08105,0.0016830234
3770.79541,0.0013779971
3769.50977,0.0013655846
3768.22412,0.0016212579
3766.93848,0.0019946089
3765.65283,0.0022627525
3764.36719,0.0022694923
3763.08154,0.0020681315
3761.79590,0.0018015639
3760.51025,0.0014793371
3759.22461,0.0010986429
3757.93896,0.0009362946
3756.65332,0.0013380857
3755.36768,0.0021694507
3754.08203,0.0029851289
3752.79639,0.0035327503
3751.51074,0.0037835406
3750.22510,0.0036290344
3748.93945,0.0029210150
3747.65381,0.0019476203
3746.36816,0.0011958163
3745.08252,0.0009326368
3743.79688,0.0011889117
3742.51123,0.0016956528
3741.22559,0.0021122983
3739.93994,0.0024027172
3738.65430,0.0026895278
3737.36865,0.0030292845
3736.08301,0.0033441074
3734.79736,0.0034591618
3733.51172,0.0032628828
3732.22607,0.0028946684
3730.94043,0.0026635858
3729.65479,0.0027889074
3728.36914,0.0032706552
3727.08350,0.0038969882
3725.79785,0.0043555452
3724.51221,0.0044703195
3723.22656,0.0043739527
3721.94092,0.0042930325
3720.65527,0.0042603808
3719.36963,0.0041974378
3718.08398,0.0040972643
3716.79834,0.0040035937
3715.51270,0.0039281752
3714.22705,0.0038380933
3712.94141,0.0036552427
3711.65576,0.0032605878
3710.37012,0.0026733270
3709.08447,0.0022004363
3707.79883,0.0020686779
3706.51318,0.0022095167
3705.22754,0.0025304630
3703.94189,0.0029839822
3702.65625,0.0034037698
3701.37061,0.0035075410
3700.08496,0.0032521635
3698.79932,0.0029974056
3697.51367,0.0030206041
3696.22803,0.0032164608
3694.94238,0.0033642463
3693.65674,0.0034268079
3692.37109,0.0035180058
3691.08545,0.0036552427
3689.79980,0.0035954150
3688.51416,0.0030424225
3687.22852,0.0022137314
3685.94287,0.0017111155
3684.65723,0.0017653302
3683.37158,0.0022019714
3682.08594,0.0027440989
3680.80029,0.0031939556
3679.51465,0.0035596839
3678.22900,0.0040262975
3676.94336,0.0046487772
3675.65771,0.0049898089
3674.37207,0.0044503119
3673.08643,0.0034388884
3671.80078,0.0028629035
3670.51514,0.0027910178
3669.22949,0.0027682220
3667.94385,0.0025942069
3666.65820,0.0025026042
3665.37256,0.0026092848
3664.08691,0.0027764547
3662.80127,0.0028806226
3661.51563,0.0029199203
3660.22998,0.0029674314
3658.94434,0.0030921369
3657.65869,0.0032791838
3656.37305,0.0034030657
3655.08740,0.0034228421
3653.80176,0.0036290081
3652.51611,0.0043681483
3651.23047,0.0055215084
3649.94482,0.0062621981
3648.65918,0.0054430999
3647.37354,0.0035368740
3646.08789,0.0026766085
3644.80225,0.0031883493
3643.51660,0.0040009553
3642.23096,0.0044598053
3640.94531,0.0045773014
3639.65967,0.0046899882
3638.37402,0.0050126426
3637.08838,0.0053980430
3635.80273,0.0055487226
3634.51709,0.0054374379
3633.23145,0.0054574646
3631.94580,0.0060780887
3630.66016,0.0073369574
3629.37451,0.0086366897
3628.08887,0.0090748789
3626.80322,0.0086533250
3625.51758,0.0084741116
3624.23193,0.0089277280
3622.94629,0.0095103616
3621.66064,0.0096494528
3620.37500,0.0091064135
3619.08936,0.0081416238
3617.80371,0.0074222120
3616.51807,0.0073691821
3615.23242,0.0076689082
3613.94678,0.0077748643
3612.66113,0.0075547616
3611.37549,0.0074413829
3610.08984,0.0079401573
3608.80420,0.0089239487
3607.51855,0.0096934699
3606.23291,0.0098665683
3604.94727,0.0099721598
3603.66162,0.0107255531
3602.37598,0.0122093819
3601.09033,0.0139205474
3599.80469,0.0151859019
3598.51904,0.0155901536
3597.23340,0.0151775135
3595.94775,0.0143293208
3594.66211,0.0135413725
3593.37646,0.0131094605
3592.09082,0.0128319524
3590.80518,0.0122496393
3589.51953,0.0111485133
3588.23389,0.0097026564
3586.94824,0.0083900495
3585.66260,0.0077140713
3584.37695,0.0077387867
3583.09131,0.0081942985
3581.80566,0.0088609327
3580.52002,0.0095479088
3579.23438,0.0100455089
3577.94873,0.0103116203
3576.66309,0.0105116684
3575.37744,0.0106475260
3574.09180,0.0103592044
3572.80615,0.0094413105
3571.52051,0.0083869081
3570.23486,0.0080159344
3568.94922,0.0086110765
3567.66357,0.0095457388
3566.37793,0.0097760921
3565.09229,0.0089960899
3563.80664,0.0079262387
3562.52100,0.0071262610
3561.23535,0.0067381933
3559.94971,0.0070067574
3558.66406,0.0081349500
3557.37842,0.0096995588
3556.09277,0.0107755978
3554.80713,0.0108484197
3553.52148,0.0103364326
3552.23584,0.0100487936
3550.95020,0.0102083040
3549.66455,0.0103432722
3548.37891,0.0102926940
3547.09326,0.0106989415
3545.80762,0.0121855270
3544.52197,0.0141927619
3543.23633,0.0152326571
3541.95068,0.0146748042
3540.66504,0.0134093063
3539.37939,0.0126818959
3538.09375,0.0128717339
3536.80811,0.0133617325
3535.52246,0.0133002056
3534.23682,0.0124375308
3532.95117,0.0112201758
3531.66553,0.0102587398
3530.37988,0.0098786959
3529.09424,0.0100678951
3527.80859,0.0105599118
3526.52295,0.0110076135
3525.23730,0.0112097887
3523.95166,0.0111349421
3522.66602,0.0107734753
3521.38037,0.0101479124
3520.09473,0.0094057284
3518.80908,0.0086458791
3517.52344,0.0077154143
3516.23779,0.0064720027
3514.95215,0.0052096616
3513.66650,0.0044893334
3512.38086,0.0044848872
3511.09521,0.0048360769
3509.80957,0.0052281846
3508.52393,0.0056864196
3507.23828,0.0061133448
3505.95264,0.0059650149
3504.66699,0.0047800904
3503.38135,0.0027701238
3502.09570,0.0008013920
3500.81006,-0.0002210617
3499.52441,0.0000526294
3498.23877,0.0013883846
3496.95313,0.0032454089
3495.66748,0.0049334620
3494.38184,0.0056605865
3493.09619,0.0048449771
3491.81055,0.0028323657
3490.52490,0.0012827822
3489.23926,0.0022116762
3487.95361,0.0058470112
3486.66797,0.0095381970
3485.38232,0.0097469185
3484.09668,0.0054838094
3482.81104,-0.0007910791
3481.52539,-0.0056033689
3480.23975,-0.0073143691
3478.95410,-0.0063973754
3477.66846,-0.0036192674
3476.38281,0.0006510020
3475.09717,0.0052310927
3473.81152,0.0078822672
3472.52588,0.0072224759
3471.24023,0.0044009122
3469.95459,0.0019954410
3468.66895,0.0014730773
3467.38330,0.0020685997
3466.09766,0.0018491347
3464.81201,-0.0001931699
3463.52637,-0.0029254386
3462.24072,-0.0041771024
3460.95508,-0.0030903250
3459.66943,-0.0010714437
3458.38379,-0.0002191988
3457.09814,-0.0012174177
3455.81250,-0.0030414364
3454.52686,-0.0043816976
3453.24121,-0.0049910694
3451.95557,-0.0056287181
3450.66992,-0.0070014815
3449.38428,-0.0089079952
3448.09863,-0.0104635535
3446.81299,-0.0108712167
3445.52734,-0.0096732564
3444.24170,-0.0066243839
3442.95605,-0.0021323164
3441.67041,0.0021960654
3440.38477,0.0043886746
3439.09912,0.0039086631
3437.81348,0.0019011046
3436.52783,-0.0004363735
3435.24219,-0.0029530523
3433.95654,-0.0056248340
3432.67090,-0.0071750646
3431.38525,-0.0059498465
3430.09961,-0.0019086691
3428.81396,0.0025560583
3427.52832,0.0037651579
3426.24268,-0.0008679688
3424.95703,-0.0104962522
3423.67139,-0.0203317814
3422.38574,-0.0242595207
3421.10010,-0.0190806016
3419.81445,-0.0072454861
3418.52881,0.0046585887
3417.24316,0.0107182562
3415.95752,0.0088524800
3414.67188,0.0009436880
3413.38623,-0.0088052237
3412.10059,-0.0163117517
3410.81494,-0.0199028421
3409.52930,-0.0206551068
3408.24365,-0.0204720665
3406.95801,-0.0200153328
3405.67236,-0.0187827256
3404.38672,-0.0168005377
3403.10107,-0.0154155269
3401.81543,-0.0156583972
3400.52979,-0.0169942938
3399.24414,-0.0187824257
3397.95850,-0.0217190534
3396.67285,-0.0256223641
3395.38721,-0.0271978863
3394.10156,-0.0231931042
3392.81592,-0.0155604072
3391.53027,-0.0099179409
3390.24463,-0.0096540675
3388.95898,-0.0137882214
3387.67334,-0.0198582318
3386.38770,-0.0263239685
3385.10205,-0.0316222608
3383.81641,-0.0332886167
3382.53076,-0.0294556953
3381.24512,-0.0205480177
3379.95947,-0.0094694681
3378.67383,-0.0008663153
3377.38818,0.0007505129
3376.10254,-0.0050731036
3374.81689,-0.0130569115
3373.53125,-0.0166024603
3372.24561,-0.0142062064
3370.95996,-0.0108459704
3369.67432,-0.0129262218
3368.38867,-0.0227801967
3367.10303,-0.0369921699
3365.81738,-0.0486574173
3364.53174,-0.0518139116
3363.24609,-0.0457641259
3361.96045,-0.0354831927
3360.67480,-0.0270189419
3359.38916,-0.0232532732
3358.10352,-0.0242793504
3356.81787,-0.0293803643
3355.53223,-0.0359261930
3354.24658,-0.0394763015
3352.96094,-0.0374390967
3351.67529,-0.0319397487
3350.38965,-0.0269857142
3349.10400,-0.0238464531
3347.81836,-0.0206782110
3346.53271,-0.0162077732
3345.24707,-0.0122462083
3343.96143,-0.0118251741
3342.67578,-0.0156851634
3341.39014,-0.0211977102
3340.10449,-0.0244624112
3338.81885,-0.0237559266
3337.53320,-0.0212415420
3336.24756,-0.0211632941
3334.96191,-0.0262619834
3333.67627,-0.0350261740
3332.39063,-0.0419271179
3331.10498,-0.0419390649
3329.81934,-0.0355794169
3328.53369,-0.0289041847
3327.24805,-0.0270291585
3325.96240,-0.0283316039
3324.67676,-0.0271096658
3323.39111,-0.0213685203
3322.10547,-0.0149266794
3320.81982,-0.0122308554
3319.53418,-0.0134452321
3318.24854,-0.0159533843
3316.96289,-0.0179266147
3315.67725,-0.0186797325
3314.39160,-0.0174524225
3313.10596,-0.0140613746
3311.82031,-0.0103640305
3310.53467,-0.0092387227
3309.24902,-0.0122067463
3307.96338,-0.0185800903
3306.67773,-0.0259403177
3305.39209,-0.0310232732
3304.10645,-0.0320918150
3302.82080,-0.0310618337
3301.53516,-0.0320694074
3300.24951,-0.0368867069
3298.96387,-0.0428671502
3297.67822,-0.0465763398
3296.39258,-0.0473378710
3295.10693,-0.0464908555
3293.82129,-0.0448967069
3292.53564,-0.0431086496
3291.25000,-0.0415173955
3289.96436,-0.0399063230
3288.67871,-0.0383670293
3287.39307,-0.0380570516
3286.10742,-0.0398487523
3284.82178,-0.0418624319
3283.53613,-0.0409732834
3282.25049,-0.0365339741
3280.96484,-0.0306336209
3279.67920,-0.0245360043
3278.39355,-0.0180731919
3277.10791,-0.0128912441
3275.82227,-0.0122970417
3274.53662,-0.0164590701
3273.25098,-0.0209532864
3271.96533,-0.0222822633
3270.67969,-0.0216979254
3269.39404,-0.0214635842
3268.10840,-0.0209089797
3266.82275,-0.0189879872
3265.53711,-0.0173468292
3264.25146,-0.0174060706
3262.96582,-0.0171111748
3261.68018,-0.0142690316
3260.39453,-0.0105385985
3259.10889,-0.0091098174
3257.82324,-0.0104139727
3256.53760,-0.0130744949
3255.25195,-0.0172865838
3253.96631,-0.0241903365
3252.68066,-0.0328541920
3251.39502,-0.0403288454
3250.10938,-0.0440986976
3248.82373,-0.0435811728
3247.53809,-0.0407926179
3246.25244,-0.0396646000
3244.96680,-0.0427715443
3243.68115,-0.0482819304
3242.39551,-0.0519337803
3241.10986,-0.0519234948
3239.82422,-0.0498296171
3238.53857,-0.0472620577
3237.25293,-0.0443457291
3235.96729,-0.0413587131
3234.68164,-0.0397428870
3233.39600,-0.0405944847
3232.11035,-0.0435752682
3230.82471,-0.0475156493
3229.53906,-0.0514003560
3228.25342,-0.0542012230
3226.96777,-0.0544325225
3225.68213,-0.0509950146
3224.39648,-0.0447989777
3223.11084,-0.0383163132
3221.82520,-0.0333842747
3220.53955,-0.0303139221
3219.25391,-0.0291100983
3217.96826,-0.0300387293
3216.68262,-0.0325020701
3215.39697,-0.0348826796
3214.11133,-0.0362845063
3212.82568,-0.0374255590
3211.54004,-0.0393916704
3210.25439,-0.0420048200
3208.96875,-0.0440514050
3207.68311,-0.0444086455
3206.39746,-0.0430731103
3205.11182,-0.0414276123
3203.82617,-0.0412922017
3202.54053,-0.0431724489
3201.25488,-0.0456685498
3199.96924,-0.0469550714
3198.68359,-0.0464830361
3197.39795,-0.0449137948
3196.11230,-0.0430250540
3194.82666,-0.0415178761
3193.54102,-0.0412952602
3192.25537,-0.0429821908
3190.96973,-0.0459393300
3189.68408,-0.0483287200
3188.39844,-0.0483821668
3187.11279,-0.0456556007
3185.82715,-0.0414311923
3184.54150,-0.0377594829
3183.25586,-0.0355280377
3181.97021,-0.0335076526
3180.68457,-0.0300955418
3179.39893,-0.0259155408
3178.11328,-0.0237034801
3176.82764,-0.0253317282
3175.54199,-0.0297263265
3174.25635,-0.0341384970
3172.97070,-0.0364128798
3171.68506,-0.0358191840
3170.39941,-0.0327833407
3169.11377,-0.0285620727
3167.82813,-0.0246989522
3166.54248,-0.0221350864
3165.25684,-0.0206991415
3163.97119,-0.0196414050
3162.68555,-0.0189026427
3161.39990,-0.0196950883
3160.11426,-0.0231744032
3158.82861,-0.0284181703
3157.54297,-0.0324716605
3156.25732,-0.0330344923
3154.97168,-0.0305943489
3153.68604,-0.0274205022
3152.40039,-0.0251278765
3151.11475,-0.0239225514
3149.82910,-0.0235327017
3148.54346,-0.0237212218
3147.25781,-0.0239472948
3145.97217,-0.0234476048
3144.68652,-0.0219568461
3143.40088,-0.0200219546
3142.11523,-0.0184034649
3140.82959,-0.0174743552
3139.54395,-0.0173634421
3138.25830,-0.0181946475
3136.97266,-0.0197779536
3135.68701,-0.0212588962
3134.40137,-0.0215901043
3133.11572,-0.0205160677
3131.83008,-0.0188232791
3130.54443,-0.0173994545
3129.25879,-0.0163838454
3127.97314,-0.0154616944
3126.68750,-0.0146467630
3125.40186,-0.0142722391
3124.11621,-0.0143057024
3122.83057,-0.0141879665
3121.54492,-0.0135981468
3120.25928,-0.0129439598
3118.97363,-0.0127962958
3117.68799,-0.0130459089
3116.40234,-0.0129616987
3115.11670,-0.0120579237
3113.83105,-0.0106777381
3112.54541,-0.0096134068
3111.25977,-0.0092256982
3109.97412,-0.0091472315
3108.68848,-0.0088780699
3107.40283,-0.0084573608
3106.11719,-0.0082985638
3104.83154,-0.0084590372
3103.54590,-0.0084488820
3102.26025,-0.0078553297
3100.97461,-0.0068760905
3099.68896,-0.0060476805
3098.40332,-0.0056191608
3097.11768,-0.0053694341
3095.83203,-0.0049548321
3094.54639,-0.0043135276
3093.26074,-0.0037084401
3091.97510,-0.0033736278
3090.68945,-0.0031366895
3089.40381,-0.0025447316
3088.11816,-0.0014787265
3086.83252,-0.0004897969
3085.54688,-0.0002687685
3084.26123,-0.0007846194
3082.97559,-0.0012427141
3081.68994,-0.0009726883
3080.40430,-0.0000924031
3079.11865,0.0008583203
3077.83301,0.0016357305
3076.54736,0.0023454558
3075.26172,0.0029832262
3073.97607,0.0033262647
3072.69043,0.0032824965
3071.40479,0.0030387209
3070.11914,0.0028119127
3068.83350,0.0026458756
3067.54785,0.0025199181
3066.26221,0.0025242923
3064.97656,0.0028367168
3063.69092,0.0035092633
3062.40527,0.0043060519
3061.11963,0.0048287213
3059.83398,0.0048844526
3058.54834,0.0046918723
3057.26270,0.0046550827
3055.97705,0.0049980306
3054.69141,0.0056808852
3053.40576,0.0065365378
3052.12012,0.0073480937
3050.83447,0.0078939460
3049.54883,0.0081156436
3048.26318,0.0082009723
3046.97754,0.0083677229
3045.69189,0.0086392248
3044.40625,0.0089306338
3043.12061,0.0092443442
3041.83496,0.0096334405
3040.54932,0.0100500379
3039.26367,0.0103610866
3037.97803,0.0104957568
3036.69238,0.0105204210
3035.40674,0.0106000165
3034.12109,0.0108940983
3032.83545,0.0114276586
3031.54980,0.0120429611
3030.26416,0.0125493435
3028.97852,0.0129152527
3027.69287,0.0132431444
3026.40723,0.0135925720
3025.12158,0.0139117800
3023.83594,0.0141185215
3022.55029,0.0141772497
3021.26465,0.0141217848
3019.97900,0.0140633304
3018.69336,0.0141245378
3017.40771,0.0143020591
3016.12207,0.0144521138
3014.83643,0.0144838272
3013.55078,0.0145045705
3012.26514,0.0146858077
3010.97949,0.0150316004
3009.69385,0.0153779369
3008.40820,0.0156063614
3007.12256,0.0157674942
3005.83691,0.0159844160
3004.55127,0.0163096078
3003.26563,0.0167044178
3001.97998,0.0171108395
3000.69434,0.0174992606
2999.40869,0.0178568512
2998.12305,0.0181642305
2996.83740,0.0183997415
2995.55176,0.0185527056
2994.26611,0.0186254103
2992.98047,0.0186320562
2991.69482,0.0186008234
2990.40918,0.0185632706
2989.12354,0.0185268242
2987.83789,0.0184717737
2986.55225,0.0183989871
2985.26660,0.0183835644
2983.98096,0.0185495447
2982.69531,0.0189613197
2981.40967,0.0195331872
2980.12402,0.0200606920
2978.83838,0.0203667879
2977.55273,0.0204416160
2976.26709,0.0204466078
2974.98145,0.0205591749
2973.69580,0.0207882486
2972.41016,0.0209636521
2971.12451,0.0209223330
2969.83887,0.0206885189
2968.55322,0.0204240326
2967.26758,0.0202447232
2965.98193,0.0201645885
2964.69629,0.0202003028
2963.41064,0.0204034671
2962.12500,0.0207344573
2960.83936,0.0210054889
2959.55371,0.0210459717
2958.26807,0.0208924282
2956.98242,0.0207480062
2955.69678,0.0207735859
2954.41113,0.0209724531
2953.12549,0.0212423857
2951.83984,0.0214650463
2950.55420,0.0215528775
2949.26855,0.0214931164
2947.98291,0.0213752240
2946.69727,0.0213214401
2945.41162,0.0213587712
2944.12598,0.0214010570
2942.84033,0.0213734563
2941.55469,0.0212966725
2940.26904,0.0212359969
2938.98340,0.0212321896
2937.69775,0.0213063527
2936.41211,0.0214474499
2935.12646,0.0215470009
2933.84082,0.0214337166
2932.55518,0.0210571140
2931.26953,0.0205915272
2929.98389,0.0202708170
2928.69824,0.0201405119
2927.41260,0.0200497694
2926.12695,0.0198912621
2924.84131,0.0197703894
2923.55566,0.0198728628
2922.27002,0.0201926548
2920.98438,0.0204850566
2919.69873,0.0205236468
2918.41309,0.0203417744
2917.12744,0.0201723427
2915.84180,0.0202087089
2914.55615,0.0204751547
2913.27051,0.0208656471
2911.98486,0.0212324634
2910.69922,0.0214741044
2909.41357,0.0216044579
2908.12793,0.0217285641
2906.84229,0.0219247937
2905.55664,0.0221680198
2904.27100,0.0223672576
2902.98535,0.0224392153
2901.69971,0.0223504957
2900.41406,0.0221409425
2899.12842,0.0219203848
2897.84277,0.0218008775
2896.55713,0.0218085814
2895.27148,0.0218745377
2893.98584,0.0219128132
2892.70020,0.0218931027
2891.41455,0.0218422245
2890.12891,0.0217985362
2888.84326,0.0217728969
2887.55762,0.0217516683
2886.27197,0.0217300057
2884.98633,0.0217337329
2883.70068,0.0218043867
2882.41504,0.0219524559
2881.12939,0.0221298300
2879.84375,0.0222588256
2878.55811,0.0222945753
2877.27246,0.0222459920
2875.98682,0.0221451093
2874.70117,0.0220265780
2873.41553,0.0219343770
2872.12988,0.0219053011
2870.84424,0.0219191052
2869.55859,0.0218993649
2868.27295,0.0217900723
2866.98730,0.0216039680
2865.70166,0.0213854481
2864.41602,0.0211694296
2863.13037,0.0210054070
2861.84473,0.0209682174
2860.55908,0.0210773032
2859.27344,0.0212160163
2857.98779,0.0212106612
2856.70215,0.0210113861
2855.41650,0.0207458623
2854.13086,0.0205653626
2852.84521,0.0205049235
2851.55957,0.0205401480
2850.27393,0.0206997059
2848.98828,0.0210147277
2847.70264,0.0213918127
2846.41699,0.0216614045
2845.13135,0.0217612479
2843.84570,0.0217874590
2842.56006,0.0218463633
2841.27441,0.0219286866
2839.98877,0.0219526179
2838.70313,0.0218802001
2837.41748,0.0217495747
2836.13184,0.0216217339
2834.84619,0.0215409361
2833.56055,0.0215422139
2832.27490,0.0216469821
2830.98926,0.0218178611
2829.70361,0.0219578482
2828.41797,0.0220023412
2827.13232,0.0219928101
2825.84668,0.0220135860
2824.56104,0.0220756531
2823.27539,0.0221161265
2821.98975,0.0220941752
2820.70410,0.0220202580
2819.41846,0.0219007265
2818.13281,0.0217286460
2816.84717,0.0215438735
2815.56152,0.0214346163
2814.27588,0.0214405190
2812.99023,0.0214985032
2811.70459,0.0215127561
2810.41895,0.0214482415
2809.13330,0.0213370770
2807.84766,0.0212303419
2806.56201,0.0211701915
2805.27637,0.0211740788
2803.99072,0.0212142505
2802.70508,0.0212328415
2801.41943,0.0211950336
2800.13379,0.0211077668
2798.84814,0.0209827498
2797.56250,0.0208224915
2796.27686,0.0206624549
2794.99121,0.0205831937
2793.70557,0.0206417162
2792.41992,0.0208013896
2791.13428,0.0209517796
2789.84863,0.0209944062
2788.56299,0.0209104363
2787.27734,0.0207551457
2785.99170,0.0205918252
2784.70605,0.0204335563
2783.42041,0.0202606190
2782.13477,0.0200852267
2780.84912,0.0199591517
2779.56348,0.0199119654
2778.27783,0.0199166816
2776.99219,0.0199263580
2775.70654,0.0199116133
2774.42090,0.0198531337
2773.13525,0.0197449233
2771.84961,0.0196234696
2770.56396,0.0195579082
2769.27832,0.0195885617
2767.99268,0.0196902845
2766.70703,0.0198040139
2765.42139,0.0198744889
2764.13574,0.0198659264
2762.85010,0.0197838545
2761.56445,0.0196964089
2760.27881,0.0196946766
2758.99316,0.0198031981
2757.70752,0.0199457332
2756.42188,0.0200149324
2755.13623,0.0199714843
2753.85059,0.0198739469
2752.56494,0.0198190492
2751.27930,0.0198485292
2749.99365,0.0199071411
2748.70801,0.0198945422
2747.42236,0.0197748598
2746.13672,0.0196304563
2744.85107,0.0195910260
2743.56543,0.0197115503
2742.27979,0.0199289862
2740.99414,0.0201322958
2739.70850,0.0202527791
2738.42285,0.0202865191
2737.13721,0.0202679951
2735.85156,0.0202518310
2734.56592,0.0202973168
2733.28027,0.0204187147
2731.99463,0.0205403641
2730.70898,0.0205383021
2729.42334,0.0203551501
2728.13770,0.0200629681
2726.85205,0.0197986476
2725.56641,0.0196545329
2724.28076,0.0196396373
2722.99512,0.0197182409
2721.70947,0.0198481772
2720.42383,0.0199848190
2719.13818,0.0200869888
2717.85254,0.0201322399
2716.56689,0.0201175716
2715.28125,0.0200487915
2713.99561,0.0199546237
2712.70996,0.0198999867
2711.42432,0.0199393649
2710.13867,0.0200368911
2708.85303,0.0200760085
2707.56738,0.0199775826
2706.28174,0.0197838005
2704.99609,0.0196090080
2703.71045,0.0195400640
2702.42480,0.0195957366
2701.13916,0.0197331142
2699.85352,0.0198681187
2698.56787,0.0199322924
2697.28223,0.0199336745
2695.99658,0.0199308824
2694.71094,0.0199444611
2693.42529,0.0199458711
2692.13965,0.0199255180
2690.85400,0.0199028626
2689.56836,0.0198670644
2688.28271,0.0197888929
2686.99707,0.0197015554
2685.71143,0.0196874961
2684.42578,0.0197648630
2683.14014,0.0198604781
2681.85449,0.0199219137
2680.56885,0.0199886393
2679.28320,0.0201286357
2677.99756,0.0203488804
2676.71191,0.0205832478
2675.42627,0.0207316875
2674.14063,0.0207166448
2672.85498,0.0205511414
2671.56934,0.0203527361
2670.28369,0.0202467851
2668.99805,0.0202593692
2667.71240,0.0203362145
2666.42676,0.0204382781
2665.14111,0.0205614790
2663.85547,0.0206845272
2662.56982,0.0207754578
2661.28418,0.0208562780
2659.99854,0.0209875591
2658.71289,0.0211696476
2657.42725,0.0213174447
2656.14160,0.0213615466
2654.85596,0.0213322081
2653.57031,0.0213173088
2652.28467,0.0213723145
2650.99902,0.0214898791
2649.71338,0.0216215160
2648.42773,0.0217069276
2647.14209,0.0217108205
2645.85645,0.0216573775
2644.57080,0.0216222778
2643.28516,0.0216708742
2641.99951,0.0217986163
2640.71387,0.0219290666
2639.42822,0.0219745114
2638.14258,0.0219070148
2636.85693,0.0217756182
2635.57129,0.0216578133
2634.28564,0.0215974376
2633.00000,0.0215862021
2631.71436,0.0215898752
2630.42871,0.0215945542
2629.14307,0.0216319915
2627.85742,0.0217439402
2626.57178,0.0219080765
2625.28613,0.0220337659
2624.00049,0.0220597498
2622.71484,0.0220233370
2621.42920,0.0220019612
2620.14355,0.0220095310
2618.85791,0.0219855383
2617.57227,0.0218719523
2616.28662,0.0216766950
2615.00098,0.0214772057
2613.71533,0.0213709008
2612.42969,0.0214038305
2611.14404,0.0215369370
2609.85840,0.0216824114
2608.57275,0.0217666645
2607.28711,0.0217664186
2606.00146,0.0217187945
2604.71582,0.0216990914
2603.43018,0.0217489209
2602.14453,0.0218195207
2600.85889,0.0218207482
2599.57324,0.0217205361
2598.28760,0.0215570405
2597.00195,0.0213694312
2595.71631,0.0211703256
2594.43066,0.0209772605
2593.14502,0.0208212957
2591.85938,0.0207263939
2590.57373,0.0207076054
2589.28809,0.0207705703
2588.00244,0.0208857711
2586.71680,0.0209874772
2585.43115,0.0210314915
2584.14551,0.0210319813
2582.85986,0.0210233144
2581.57422,0.0210090484
2580.28857,0.0209701732
2579.00293,0.0208960678
2577.71729,0.0207848810
2576.43164,0.0206367746
2575.14600,0.0204657633
2573.86035,0.0203083009
2572.57471,0.0202086810
2571.28906,0.0201960988
2570.00342,0.0202649292
2568.71777,0.0203600861
2567.43213,0.0203967951
2566.14648,0.0203276407
2564.86084,0.0201937649
2563.57520,0.0200900007
2562.28955,0.0200772844
2561.00391,0.0201410241
2559.71826,0.0202158149
2558.43262,0.0202371590
2557.14697,0.0201858766
2555.86133,0.0201032553
2554.57568,0.0200414713
2553.29004,0.0199884493
2552.00439,0.0198763851
2550.71875,0.0196825936
2549.43311,0.0194787364
2548.14746,0.0193478297
2546.86182,0.0192902386
2545.57617,0.0192462392
2544.29053,0.0191782992
2543.00488,0.0190950874
2541.71924,0.0190168414
2540.43359,0.0189465825
2539.14795,0.0188681465
2537.86230,0.0187611561
2536.57666,0.0186272748
2535.29102,0.0185048096
2534.00537,0.0184383895
2532.71973,0.0184324216
2531.43408,0.0184437633
2530.14844,0.0184182953
2528.86279,0.0183287226
2527.57715,0.0181833394
2526.29150,0.0180088673
2525.00586,0.0178282876
2523.72021,0.0176556278
2522.43457,0.0175054595
2521.14893,0.0173908807
2519.86328,0.0173121337
2518.57764,0.0172593072
2517.29199,0.0172271747
2516.00635,0.0172079187
2514.72070,0.0171803404
2513.43506,0.0171254054
2512.14941,0.0170488302
2510.86377,0.0169715993
2509.57813,0.0169068407
2508.29248,0.0168633778
2507.00684,0.0168521032
2505.72119,0.0168616269
2504.43555,0.0168413632
2503.14990,0.0167355146
2501.86426,0.0165348928
2500.57861,0.0162922479
2499.29297,0.0160849504
2498.00732,0.0159589313
2496.72168,0.0158962552
2495.43604,0.0158394687
2494.15039,0.0157485195
2492.86475,0.0156256538
2491.57910,0.0154908597
2490.29346,0.0153577169
2489.00781,0.0152366236
2487.72217,0.0151384007
2486.43652,0.0150637040
2485.15088,0.0150024462
2483.86523,0.0149513502
2482.57959,0.0149182361
2481.29395,0.0149011947
2480.00830,0.0148742199
2478.72266,0.0148127461
2477.43701,0.0147254923
2476.15137,0.0146433692
2474.86572,0.0145697752
2473.58008,0.0144729894
2472.29443,0.0143402899
2471.00879,0.0142088635
2469.72314,0.0141200190
2468.43750,0.0140667800
2467.15186,0.0140153654
2465.86621,0.0139601883
2464.58057,0.0139325745
2463.29492,0.0139600812
2462.00928,0.0140257375
2460.72363,0.0140588675
2459.43799,0.0139746228
2458.15234,0.0137535743
2456.86670,0.0134809688
2455.58105,0.0132781062
2454.29541,0.0131888920
2453.00977,0.0131623959
2451.72412,0.0131423576
2450.43848,0.0131286969
2449.15283,0.0131366747
2447.86719,0.0131386770
2446.58154,0.0130926808
2445.29590,0.0130107058
2444.01025,0.0129514150
2442.72461,0.0129492823
2441.43896,0.0129831797
2440.15332,0.0130128916
2438.86768,0.0130182281
2437.58203,0.0130008366
2436.29639,0.0129761659
2435.01074,0.0129611231
2433.72510,0.0129467743
2432.43945,0.0128903994
2431.15381,0.0127583435
2429.86816,0.0125723397
2428.58252,0.0124022365
2427.29688,0.0123122428
2426.01123,0.0123204971
2424.72559,0.0123904105
2423.43994,0.0124546858
2422.15430,0.0124572953
2420.86865,0.0123824989
2419.58301,0.0122515028
2418.29736,0.0121040158
2417.01172,0.0119834561
2415.72607,0.0119190384
2414.44043,0.0119069852
2413.15479,0.0119131040
2411.86914,0.0119072245
2410.58350,0.0118893730
2409.29785,0.0118750073
2408.01221,0.0118548684
2406.72656,0.0117932884
2405.44092,0.0116825467
2404.15527,0.0115833972
2402.86963,0.0115731349
2401.58398,0.0116546787
2400.29834,0.0117490049
2399.01270,0.0117796436
2397.72705,0.0117357336
2396.44141,0.0116551304
2395.15576,0.0115776006
2393.87012,0.0115223872
2392.58447,0.0114823561
2391.29883,0.0114332670
2390.01318,0.0113637475
2388.72754,0.0113004576
2387.44189,0.0113003785
2386.15625,0.0114155142
2384.87061,0.0116605293
2383.58496,0.0120134735
2382.29932,0.0124546317
2381.01367,0.0130036371
2379.72803,0.0136998463
2378.44238,0.0145400893
2377.15674,0.0154533591
2375.87109,0.0163504612
2374.58545,0.0171851348
2373.29980,0.0179682076
2372.01416,0.0187532902
2370.72852,0.0196025893
2369.44287,0.0205207169
2368.15723,0.0214301012
2366.87158,0.0222560745
2365.58594,0.0229837187
2364.30029,0.0235699806
2363.01465,0.0239122827
2361.72900,0.0240141246
2360.44336,0.0240478832
2359.15771,0.0240827966
2357.87207,0.0238842759
2356.58643,0.0231853500
2355.30078,0.0220397320
2354.01514,0.0207221024
2352.72949,0.0194450058
2351.44385,0.0183411706
2350.15820,0.0175503884
2348.87256,0.0171795860
2347.58691,0.0172642116
2346.30127,0.0177828968
2345.01563,0.0186216813
2343.72998,0.0194834750
2342.44434,0.0199606139
2341.15869,0.0198377166
2339.87305,0.0192406662
2338.58740,0.0185007844
2337.30176,0.0179409608
2336.01611,0.0177114941
2334.73047,0.0177465212
2333.44482,0.0178516172
2332.15918,0.0178555287
2330.87354,0.0177235994
2329.58789,0.0175340828
2328.30225,0.0173285380
2327.01660,0.0170383062
2325.73096,0.0166003760
2324.44531,0.0160890333
2323.15967,0.0156723745
2321.87402,0.0154377222
2320.58838,0.0152994990
2319.30273,0.0151034780
2318.01709,0.0147814639
2316.73145,0.0143820569
2315.44580,0.0139980670
2314.16016,0.0136910854
2312.87451,0.0134515436
2311.58887,0.0132118147
2310.30322,0.0129169058
2309.01758,0.0125831049
2307.73193,0.0122641772
2306.44629,0.0119720139
2305.16064,0.0116675217
2303.87500,0.0113239707
2302.58936,0.0109641794
2301.30371,0.0106273927
2300.01807,0.0103313681
2298.73242,0.0100787040
2297.44678,0.0098741949
2296.16113,0.0097126355
2294.87549,0.0095628072
2293.58984,0.0093935607
2292.30420,0.0092135658
2291.01855,0.0090596005
2289.73291,0.0089395121
2288.44727,0.0088186115
2287.16162,0.0086667137
2285.87598,0.0084939627
2284.59033,0.0083344197
2283.30469,0.0082206260
2282.01904,0.0081765996
2280.73340,0.0082028452
2279.44775,0.0082657384
2278.16211,0.0083308844
2276.87646,0.0084028216
2275.59082,0.0084943855
2274.30518,0.0085657686
2273.01953,0.0085474197
2271.73389,0.0084345201
2270.44824,0.0083146039
2269.16260,0.0082804868
2267.87695,0.0083396453
2266.59131,0.0084198983
2265.30566,0.0084483773
2264.02002,0.0084084701
2262.73438,0.0083283242
2261.44873,0.0082342131
2260.16309,0.0081333145
2258.87744,0.0080397716
2257.59180,0.0079823164
2256.30615,0.0079648355
2255.02051,0.0079476452
2253.73486,0.0079009049
2252.44922,0.0078545120
2251.16357,0.0078520868
2249.87793,0.0078767594
2248.59229,0.0078731477
2247.30664,0.0078390129
2246.02100,0.0078373523
2244.73535,0.0079028038
2243.44971,0.0079712430
2242.16406,0.0079356767
2240.87842,0.0077652186
2239.59277,0.0075489413
2238.30713,0.0074125216
2237.02148,0.0073939324
2235.73584,0.0074167615
2234.45020,0.0073901140
2233.16455,0.0073104193
2231.87891,0.0072479807
2230.59326,0.0072511388
2229.30762,0.0072991000
2228.02197,0.0073398263
2226.73633,0.0073515424
2225.45068,0.0073584141
2224.16504,0.0073939855
2222.87939,0.0074527590
2221.59375,0.0074869674
2220.30811,0.0074576046
2219.02246,0.0073793712
2217.73682,0.0073050763
2216.45117,0.0072710654
2215.16553,0.0072683012
2213.87988,0.0072606681
2212.59424,0.0072278972
2211.30859,0.0071875509
2210.02295,0.0071682860
2208.73730,0.0071703391
2207.45166,0.0071750763
2206.16602,0.0071888133
2204.88037,0.0072345571
2203.59473,0.0072929934
2202.30908,0.0072998893
2201.02344,0.0072255814
2199.73779,0.0071261288
2198.45215,0.0070853964
2197.16650,0.0071231285
2195.88086,0.0071779187
2194.59521,0.0071737343
2193.30957,0.0070940005
2192.02393,0.0069865016
2190.73828,0.0069025420
2189.45264,0.0068478137
2188.16699,0.0068071857
2186.88135,0.0067926715
2185.59570,0.0068380050
2184.31006,0.0069505428
2183.02441,0.0070921327
2181.73877,0.0072057624
2180.45313,0.0072517972
2179.16748,0.0072294772
2177.88184,0.0071717594
2176.59619,0.0071172346
2175.31055,0.0070856330
2174.02490,0.0070820549
2172.73926,0.0071098660
2171.45361,0.0071647596
2170.16797,0.0072260029
2168.88232,0.0072676963
2167.59668,0.0072728815
2166.31104,0.0072344518
2165.02539,0.0071647596
2163.73975,0.0071048676
2162.45410,0.0071002883
2161.16846,0.0071534435
2159.88281,0.0072267922
2158.59717,0.0073033911
2157.31152,0.0074124951
2156.02588,0.0075694337
2154.74023,0.0077178120
2153.45459,0.0077782101
2152.16895,0.0077388133
2150.88330,0.0076615056
2149.59766,0.0076018614
2148.31201,0.0075702504
2147.02637,0.0075728316
2145.74072,0.0076345010
2144.45508,0.0077549936
2143.16943,0.0078769438
2141.88379,0.0079332776
2140.59814,0.0079141650
2139.31250,0.0078672953
2138.02686,0.0078405943
2136.74121,0.0078446269
2135.45557,0.0078709852
2134.16992,0.0079222582
2132.88428,0.0080014579
2131.59863,0.0080780098
2130.31299,0.0080969976
2129.02734,0.0080371089
2127.74170,0.0079429531
2126.45605,0.0078771804
2125.17041,0.0078558037
2123.88477,0.0078536160
2122.59912,0.0078586489
2121.31348,0.0078873029
2120.02783,0.0079452200
2118.74219,0.0080053080
2117.45654,0.0080420393
2116.17090,0.0080715474
2114.88525,0.0081377719
2113.59961,0.0082603311
2112.31396,0.0084089721
2111.02832,0.0085370718
2109.74268,0.0086239614
2108.45703,0.0086676124
2107.17139,0.0086526647
2105.88574,0.0085695712
2104.60010,0.0084703900
2103.31445,0.0084547643
2102.02881,0.0085677216
2100.74316,0.0087441476
2099.45752,0.0088869035
2098.17188,0.0089621320
2096.88623,0.0089922836
2095.60059,0.0089970678
2094.31494,0.0089878989
2093.02930,0.0089898799
2091.74365,0.0090254005
2090.45801,0.0090926420
2089.17236,0.0091820499
2087.88672,0.0092928959
2086.60107,0.0094153052
2085.31543,0.0095167384
2084.02979,0.0095665120
2082.74414,0.0095649762
2081.45850,0.0095461896
2080.17285,0.0095541803
2078.88721,0.0096048051
2077.60156,0.0096656252
2076.31592,0.0096933655
2075.03027,0.0096956948
2073.74463,0.0097264545
2072.45898,0.0098149069
2071.17334,0.0099292258
2069.88770,0.0100203957
2068.60205,0.0100777503
2067.31641,0.0101303970
2066.03076,0.0102054151
2064.74512,0.0102925077
2063.45947,0.0103469044
2062.17383,0.0103361672
2060.88818,0.0102838147
2059.60254,0.0102556124
2058.31689,0.0102994805
2057.03125,0.0104030827
2055.74561,0.0105182994
2054.45996,0.0106190890
2053.17432,0.0107225282
2051.88867,0.0108443322
2050.60303,0.0109561086
2049.31738,0.0110145966
2048.03174,0.0110319341
2046.74609,0.0110700652
2045.46045,0.0111531876
2044.17480,0.0112239737
2042.88916,0.0112110116
2041.60352,0.0111203091
2040.31787,0.0110336607
2039.03223,0.0110301292
2037.74658,0.0111263096
2036.46094,0.0112790177
2035.17529,0.0114223696
2033.88965,0.0115112225
2032.60400,0.0115531422
2031.31836,0.0116019808
2030.03271,0.0117083145
2028.74707,0.0118664680
2027.46143,0.0120125962
2026.17578,0.0120792901
2024.89014,0.0120548839
2023.60449,0.0119895758
2022.31885,0.0119398180
2021.03320,0.0119180251
2019.74756,0.0118987635
2018.46191,0.0118673444
2017.17627,0.0118504260
2015.89063,0.0118887872
2014.60498,0.0119874207
2013.31934,0.0121049481
2012.03369,0.0121959643
2010.74805,0.0122482814
2009.46240,0.0122752553
2008.17676,0.0122865718
2006.89111,0.0122783436
2005.60547,0.0122496132
2004.31982,0.0122101810
2003.03418,0.0121705122
2001.74854,0.0121341487
2000.46289,0.0121029522
1999.17725,0.0120850662
1997.89160,0.0120965373
1996.60596,0.0121535817
1995.32031,0.0122512104
1994.03467,0.0123483809
1992.74902,0.0123905437
1991.46338,0.0123567712
1990.17773,0.0122825773
1988.89209,0.0122256503
1987.60645,0.0122224279
1986.32080,0.0122821778
1985.03516,0.0123943789
1983.74951,0.0125265103
1982.46387,0.0126287527
1981.17822,0.0126523655
1979.89258,0.0125812124
1978.60693,0.0124537796
1977.32129,0.0123471031
1976.03564,0.0123194596
1974.75000,0.0123678241
1973.46436,0.0124384621
1972.17871,0.0124693364
1970.89307,0.0124238646
1969.60742,0.0123109911
1968.32178,0.0121826781
1967.03613,0.0120982146
1965.75049,0.0120772934
1964.46484,0.0120979482
1963.17920,0.0121305827
1961.89355,0.0121496422
1960.60791,0.0121313529
1959.32227,0.0120792901
1958.03662,0.0120325014
1956.75098,0.0120170396
1955.46533,0.0120109180
1954.17969,0.0119843874
1952.89404,0.0119538931
1951.60840,0.0119569274
1950.32275,0.0119888587
1949.03711,0.0120014185
1947.75146,0.0119653083
1946.46582,0.0119027821
1945.18018,0.0118526602
1943.89453,0.0118258987
1942.60889,0.0118130250
1941.32324,0.0118193822
1940.03760,0.0118544167
1938.75195,0.0118978331
1937.46631,0.0119115617
1936.18066,0.0118791824
1934.89502,0.0118154716
1933.60938,0.0117403604
1932.32373,0.0116639063
1931.03809,0.0115904678
1929.75244,0.0115226526
1928.46680,0.0114616510
1927.18115,0.0114175342
1925.89551,0.0114045115
1924.60986,0.0114138657
1923.32422,0.0114070894
1922.03857,0.0113558294
1920.75293,0.0112707559
1919.46729,0.0111704515
1918.18164,0.0110549293
1916.89600,0.0109408181
1915.61035,0.0108775627
1914.32471,0.0108887628
1913.03906,0.0109358272
1911.75342,0.0109604355
1910.46777,0.0109363580
1909.18213,0.0108762886
1907.89648,0.0108004371
1906.61084,0.0107225552
1905.32520,0.0106593845
1904.03955,0.0106275510
1902.75391,0.0106242886
1901.46826,0.0106251100
1900.18262,0.0106056929
1898.89697,0.0105535202
1897.61133,0.0104662953
1896.32568,0.0103609283
1895.04004,0.0102825956
1893.75439,0.0102709858
1892.46875,0.0102998773
1891.18311,0.0102914218
1889.89746,0.0102067934
1888.61182,0.0101048537
1887.32617,0.0100703323
1886.04053,0.0100985747
1884.75488,0.0101175997
1883.46924,0.0100872098
1882.18359,0.0100245010
1880.89795,0.0099555524
1879.61230,0.0098822713
1878.32666,0.0097996024
1877.04102,0.0097184069
1875.75537,0.0096592195
1874.46973,0.0096375691
1873.18408,0.0096469382
1871.89844,0.0096470714
1870.61279,0.0095773349
1869.32715,0.0094122095
1868.04150,0.0092264432
1866.75586,0.0091454070
1865.47021,0.0091865435
1864.18457,0.0092656575
1862.89893,0.0093179941
1861.61328,0.0093281493
1860.32764,0.0092931604
1859.04199,0.0092067178
1857.75635,0.0090886503
1856.47070,0.0089909639
1855.18506,0.0089521166
1853.89941,0.0089667309
1852.61377,0.0090080891
1851.32813,0.0090517774
1850.04248,0.0090747997
1848.75684,0.0090603149
1847.47119,0.0090076663
1846.18555,0.0089220721
1844.89990,0.0088063795
1843.61426,0.0086941263
1842.32861,0.0086452449
1841.04297,0.0086622769
1839.75732,0.0086897686
1838.47168,0.0086898208
1837.18604,0.0086706486
1835.90039,0.0086677969
1834.61475,0.0087047685
1833.32910,0.0087625049
1832.04346,0.0087819202
1830.75781,0.0087162312
1829.47217,0.0086121587
1828.18652,0.0085849110
1826.90088,0.0086446907
1825.61523,0.0086759832
1824.32959,0.0086076697
1823.04395,0.0085038878
1821.75830,0.0084664831
1820.47266,0.0085104350
1819.18701,0.0085810823
1817.90137,0.0086299824
1816.61572,0.0086466437
1815.33008,0.0086320415
1814.04443,0.0085722376
1812.75879,0.0084535768
1811.47314,0.0083065825
1810.18750,0.0082091773
1808.90186,0.0082172230
1807.61621,0.0083035221
1806.33057,0.0083964616
1805.04492,0.0084457630
1803.75928,0.0084427027
1802.47363,0.0084081274
1801.18799,0.0083764577
1799.90234,0.0083760880
1798.61670,0.0084130364
1797.33105,0.0084749833
1796.04541,0.0085476320
1794.75977,0.0086210314
1793.47412,0.0086841965
1792.18848,0.0087352470
1790.90283,0.0088072522
1789.61719,0.0089466739
1788.33154,0.0091513554
1787.04590,0.0093831131
1785.76025,0.0096089868
1784.47461,0.0098132389
1783.18896,0.0099882903
1781.90332,0.0101371268
1780.61768,0.0102916332
1779.33203,0.0105041638
1778.04639,0.0107987653
1776.76074,0.0111485403
1775.47510,0.0115026366
1774.18945,0.0118153654
1772.90381,0.0120957112
1771.61816,0.0124739986
1770.33252,0.0131039917
1769.04688,0.0139699439
1767.76123,0.0149566559
1766.47559,0.0159660187
1765.18994,0.0169430934
1763.90430,0.0179176517
1762.61865,0.0190032125
1761.33301,0.0202712230
1760.04736,0.0216358006
1758.76172,0.0230089650
1757.47607,0.0244535729
1756.19043,0.0260352381
1754.90479,0.0276978407
1753.61914,0.0293925628
1752.33350,0.0311972387
1751.04785,0.0332528129
1749.76221,0.0356327593
1748.47656,0.0382252634
1747.19092,0.0408075452
1745.90527,0.0432661772
1744.61963,0.0456235744
1743.33398,0.0479343459
1742.04834,0.0502721593
1740.76270,0.0527534038
1739.47705,0.0553541593
1738.19141,0.0577531159
1736.90576,0.0596975498
1735.62012,0.0613660216
1734.33447,0.0631862357
1733.04883,0.0652937815
1731.76318,0.0672888979
1730.47754,0.0689762980
1729.19189,0.0704841390
1727.90625,0.0718111992
1726.62061,0.0728517026
1725.33496,0.0735691488
1724.04932,0.0740046427
1722.76367,0.0742442235
1721.47803,0.0743776336
1720.19238,0.0743919462
1718.90674,0.0740983710
1717.62109,0.0732104033
1716.33545,0.0717606843
1715.04980,0.0703615695
1713.76416,0.0693471730
1712.47852,0.0684583038
1711.19287,0.0673973635
1709.90723,0.0661089271
1708.62158,0.0647027865
1707.33594,0.0632038116
1706.05029,0.0614771321
1704.76465,0.0595511571
1703.47900,0.0577390157
1702.19336,0.0561108775
1700.90771,0.0542535521
1699.62207,0.0518285260
1698.33643,0.0492756702
1697.05078,0.0470921025
1695.76514,0.0450593717
1694.47949,0.0430913679
1693.19385,0.0414573997
1691.90820,0.0401181467
1690.62256,0.0387372412
1689.33691,0.0371412262
1688.05127,0.0355272070
1686.76563,0.0341266058
1685.47998,0.0327837691
1684.19434,0.0311606918
1682.90869,0.0295127612
1681.62305,0.0284493174
1680.33740,0.0278567355
1679.05176,0.0274322256
1677.76611,0.0270722881
1676.48047,0.0266749356
1675.19482,0.0260798521
1673.90918,0.0253111701
1672.62354,0.0245910138
1671.33789,0.0239000302
1670.05225,0.0229448825
1668.76660,0.0217565428
1667.48096,0.0208963938
1666.19531,0.0205793679
1664.90967,0.0205159411
1663.62402,0.0205302145
1662.33838,0.0207359511
1661.05273,0.0212287102
1659.76709,0.0217862055
1658.48145,0.0221312176
1657.19580,0.0222032182
1655.91016,0.0220656861
1654.62451,0.0217629075
1653.33887,0.0213737022
1652.05322,0.0212595109
1650.76758,0.0215937644
1649.48193,0.0220491551
1648.19629,0.0223816186
1646.91064,0.0224714614
1645.62500,0.0223798193
1644.33936,0.0223337077
1643.05371,0.0223597605
1641.76807,0.0223367866
1640.48242,0.0222220421
1639.19678,0.0221226104
1637.91113,0.0222869720
1636.62549,0.0229820255
1635.33984,0.0240161475
1634.05420,0.0245403387
1632.76855,0.0243233182
1631.48291,0.0238508563
1630.19727,0.0234565213
1628.91162,0.0232301857
1627.62598,0.0231175553
1626.34033,0.0229726098
1625.05469,0.0226558633
1623.76904,0.0221605022
1622.48340,0.0216770489
1621.19775,0.0214151964
1619.91211,0.0213412903
1618.62646,0.0212694611
1617.34082,0.0210662149
1616.05518,0.0207504220
1614.76953,0.0204038192
1613.48389,0.0199773107
1612.19824,0.0193971731
1610.91260,0.0187200457
1609.62695,0.0181015600
1608.34131,0.0176534168
1607.05566,0.0173376985
1605.77002,0.0170232579
1604.48438,0.0166079607
1603.19873,0.0160954837
1601.91309,0.0156041058
1600.62744,0.0152610745
1599.34180,0.0150582371
1598.05615,0.0148702031
1596.77051,0.0145993568
1595.48486,0.0142360125
1594.19922,0.0137912240
1592.91357,0.0132487752
1591.62793,0.0126304580
1590.34229,0.0120475115
1589.05664,0.0116248196
1587.77100,0.0113780973
1586.48535,0.0112100281
1585.19971,0.0110169323
1583.91406,0.0107624633
1582.62842,0.0104694236
1581.34277,0.0101879518
1580.05713,0.0099556856
1578.77148,0.0097435024
1577.48584,0.0094366260
1576.20020,0.0089594899
1574.91455,0.0085081635
1573.62891,0.0083133103
1572.34326,0.0082704881
1571.05762,0.0081439707
1569.77197,0.0077955257
1568.48633,0.0073283217
1567.20068,0.0069767158
1565.91504,0.0067995605
1564.62939,0.0067392448
1563.34375,0.0067749759
1562.05811,0.0068845521
1560.77246,0.0069433884
1559.48682,0.0066713416
1558.20117,0.0060041985
1556.91553,0.0056302971
1555.62988,0.0056888061
1554.34424,0.0057654227
1553.05859,0.0056664087
1551.77295,0.0054032844
1550.48730,0.0050833784
1549.20166,0.0048382492
1547.91602,0.0047402312
1546.63037,0.0047423514
1545.34473,0.0047407290
1544.05908,0.0046916888
1542.77344,0.0046499283
1541.48779,0.0046360088
1540.20215,0.0045155417
1538.91650,0.0043227584
1537.63086,0.0043083262
1536.34521,0.0044325804
1535.05957,0.0044778776
1533.77393,0.0042629172
1532.48828,0.0038525090
1531.20264,0.0035691583
1529.91699,0.0035483835
1528.63135,0.0036401809
1527.34570,0.0036603333
1526.06006,0.0035450947
1524.77441,0.0033769507
1523.48877,0.0032501814
1522.20313,0.0031664453
1520.91748,0.0030887215
1519.63184,0.0029943557
1518.34619,0.0028536012
1517.06055,0.0026573611
1515.77490,0.0024840930
1514.48926,0.0024355939
1513.20361,0.0025131486
1511.91797,0.0026465005
1510.63232,0.0027785648
1509.34668,0.0028608970
1508.06104,0.0028055033
1506.77539,0.0025924360
1505.48975,0.0025149193
1504.20410,0.0026911427
1502.91846,0.0029005057
1501.63281,0.0030114288
1500.34717,0.0030043127
1499.06152,0.0029083758
1497.77588,0.0027870315
1496.49023,0.0027529304
1495.20459,0.0028961799
1493.91895,0.0031584406
1492.63330,0.0033860819
1491.34766,0.0034255816
1490.06201,0.0031962767
1488.77637,0.0028639717
1487.49072,0.0027848431
1486.20508,0.0030314480
1484.91943,0.0033844905
1483.63379,0.0036565738
1482.34814,0.0037910612
1481.06250,0.0038298140
1479.77686,0.0038480167
1478.49121,0.0038741867
1477.20557,0.0038710258
1475.91992,0.0037967016
1474.63428,0.0036840376
1473.34863,0.0036597592
1472.06299,0.0038280385
1470.77734,0.0041237366
1469.49170,0.0044393279
1468.20605,0.0047593885
1466.92041,0.0050936970
1465.63477,0.0054218159
1464.34912,0.0057154801
1463.06348,0.0059795543
1461.77783,0.0062232795
1460.49219,0.0064288615
1459.20654,0.0066055506
1457.92090,0.0068971240
1456.63525,0.0075556850
1455.34961,0.0084865987
1454.06396,0.0093669249
1452.77832,0.0101687126
1451.49268,0.0109699927
1450.20703,0.0117769036
1448.92139,0.0125525678
1447.63574,0.0133085344
1446.35010,0.0141095631
1445.06445,0.0149657903
1443.77881,0.0158005673
1442.49316,0.0165296216
1441.20752,0.0171237644
1439.92188,0.0176102035
1438.63623,0.0180375222
1437.35059,0.0184473842
1436.06494,0.0188706890
1434.77930,0.0193200354
1433.49365,0.0197885670
1432.20801,0.0202671811
1430.92236,0.0207329113
1429.63672,0.0211337730
1428.35107,0.0214287676
1427.06543,0.0216473080
1425.77979,0.0218640827
1424.49414,0.0221322812
1423.20850,0.0224404130
1421.92285,0.0227274876
1420.63721,0.0229731835
1419.35156,0.0232754108
1418.06592,0.0237909425
1416.78027,0.0244979113
1415.49463,0.0252033435
1414.20898,0.0257979706
1412.92334,0.0262960978
1411.63770,0.0267600548
1410.35205,0.0272373483
1409.06641,0.0277207959
1407.78076,0.0281658117
1406.49512,0.0285324603
1405.20947,0.0287982281
1403.92383,0.0289768968
1402.63818,0.0291262381
1401.35254,0.0292817298
1400.06689,0.0293977410
1398.78125,0.0293807033
1397.49561,0.0291937590
1396.20996,0.0289019365
1394.92432,0.0285999160
1393.63867,0.0283533651
1392.35303,0.0281856693
1391.06738,0.0280684028
1389.78174,0.0279407073
1388.49609,0.0277463477
1387.21045,0.0274815839
1385.92480,0.0272180550
1384.63916,0.0270223115
1383.35352,0.0268873479
1382.06787,0.0267832372
1380.78223,0.0267072525
1379.49658,0.0266608968
1378.21094,0.0266168881
1376.92529,0.0265470427
1375.63965,0.0264708530
1374.35400,0.0264419112
1373.06836,0.0264846366
1371.78271,0.0265726913
1370.49707,0.0266943965
1369.21143,0.0268877074
1367.92578,0.0271863341
1366.64014,0.0275543090
1365.35449,0.0279129092
1364.06885,0.0282336250
1362.78320,0.0285693668
1361.49756,0.0289702825
1360.21191,0.0293923691
1358.92627,0.0297707822
1357.64063,0.0301225856
1356.35498,0.0305183604
1355.06934,0.0309995804
1353.78369,0.0315415710
1352.49805,0.0320824534
1351.21240,0.0325695202
1349.92676,0.0329852849
1348.64111,0.0333572291
1347.35547,0.0337407142
1346.06982,0.0341729298
1344.78418,0.0346340761
1343.49854,0.0350548625
1342.21289,0.0353664868
1340.92725,0.0355616473
1339.64160,0.0357208326
1338.35596,0.0359442160
1337.07031,0.0362379104
1335.78467,0.0365376584
1334.49902,0.0368200950
1333.21338,0.0371115617
1331.92773,0.0374243632
1330.64209,0.0377359465
1329.35645,0.0380176604
1328.07080,0.0382553115
1326.78516,0.0384432375
1325.49951,0.0385812148
1324.21387,0.0386761688
1322.92822,0.0387404114
1321.64258,0.0387916639
1320.35693,0.0388484485
1319.07129,0.0389156304
1317.78564,0.0389723182
1316.50000,0.0389872938
1315.21436,0.0389520675
1313.92871,0.0388939977
1312.64307,0.0388504565
1311.35742,0.0388245806
1310.07178,0.0387842730
1308.78613,0.0387129299
1307.50049,0.0386371203
1306.21484,0.0385869332
1304.92920,0.0385517068
1303.64355,0.0384982228
1302.35791,0.0384076573
1301.07227,0.0382781848
1299.78662,0.0381182581
1298.50098,0.0379541777
1297.21533,0.0378180929
1295.92969,0.0377092920
1294.64404,0.0375857241
1293.35840,0.0374115817
1292.07275,0.0372039378
1290.78711,0.0370254032
1289.50146,0.0369297713
1288.21582,0.0369163267
1286.93018,0.0369370990
1285.64453,0.0369454660
1284.35889,0.0369265862
1283.07324,0.0368869901
1281.78760,0.0368406624
1280.50195,0.0368076116
1279.21631,0.0368026271
1277.93066,0.0368217863
1276.64502,0.0368572362
1275.35938,0.0369237997
1274.07373,0.0370535403
1272.78809,0.0372698493
1271.50244,0.0375792384
1270.21680,0.0379787572
1268.93115,0.0384570099
1267.64551,0.0389930718
1266.35986,0.0395652950
1265.07422,0.0401575230
1263.78857,0.0407662280
1262.50293,0.0414142273
1261.21729,0.0421481319
1259.93164,0.0430006459
1258.64600,0.0439554714
1257.36035,0.0449757017
1256.07471,0.0460644141
1254.78906,0.0472691096
1253.50342,0.0486189313
1252.21777,0.0500804707
1250.93213,0.0515848696
1249.64648,0.0530885905
1248.36084,0.0545939468
1247.07520,0.0561180301
1245.78955,0.0576569438
1244.50391,0.0591875352
1243.21826,0.0606876463
1241.93262,0.0621419288
1240.64697,0.0635316074
1239.36133,0.0648420677
1238.07568,0.0660822913
1236.79004,0.0672812313
1235.50439,0.0684470981
1234.21875,0.0695351288
1232.93311,0.0704759806
1231.64746,0.0712416843
1230.36182,0.0718680993
1229.07617,0.0723991990
1227.79053,0.0728240907
1226.50488,0.0730904639
1225.21924,0.0731774941
1223.93359,0.0731181800
1222.64795,0.0729321018
1221.36230,0.0725720748
1220.07666,0.0719774589
1218.79102,0.0711664781
1217.50537,0.0702324063
1216.21973,0.0692446977
1214.93408,0.0681940317
1213.64844,0.0670535341
1212.36279,0.0658597201
1211.07715,0.0646973178
1209.79150,0.0636036173
1208.50586,0.0625176206
1207.22021,0.0613436885
1205.93457,0.0600607358
1204.64893,0.0587501042
1203.36328,0.0575094335
1202.07764,0.0563571379
1200.79199,0.0552356243
1199.50635,0.0540864281
1198.22070,0.0528943129
1196.93506,0.0516660921
1195.64941,0.0504077598
1194.36377,0.0491367690
1193.07813,0.0478894599
1191.79248,0.0466906875
1190.50684,0.0455256812
1189.22119,0.0443620756
1187.93555,0.0431963168
1186.64990,0.0420576632
1185.36426,0.0409591347
1184.07861,0.0398552381
1182.79297,0.0386657044
1181.50732,0.0373521075
1180.22168,0.0359650254
1178.93604,0.0345998742
1177.65039,0.0332987010
1176.36475,0.0320135579
1175.07910,0.0306785684
1173.79346,0.0293066762
1172.50781,0.0280042607
1171.22217,0.0269013122
1169.93652,0.0260665212
1168.65088,0.0254604090
1167.36523,0.0249574259
1166.07959,0.0244371127
1164.79395,0.0238711741
1163.50830,0.0233181827
1162.22266,0.0228490494
1160.93701,0.0225082897
1159.65137,0.0223295651
1158.36572,0.0223300848
1157.08008,0.0224725232
1155.79443,0.0226763189
1154.50879,0.0228831004
1153.22314,0.0230882876
1151.93750,0.0233077500
1150.65186,0.0235519167
1149.36621,0.0238401629
1148.08057,0.0241991822
1146.79492,0.0246215034
1145.50928,0.0250455532
1144.22363,0.0253993943
1142.93799,0.0256569069
1141.65234,0.0258389562
1140.36670,0.0259796418
1139.08105,0.0261070095
1137.79541,0.0262417868
1136.50977,0.0263841953
1135.22412,0.0264969915
1133.93848,0.0265300367
1132.65283,0.0264772084
1131.36719,0.0263917334
1130.08154,0.0263296533
1128.79590,0.0262948349
1127.51025,0.0262557846
1126.22461,0.0262021925
1124.93896,0.0261460468
1123.65332,0.0260666572
1122.36768,0.0258950610
1121.08203,0.0255856495
1119.79639,0.0251803286
1118.51074,0.0247730017
1117.22510,0.0244156159
1115.93945,0.0240812916
1114.65381,0.0237186793
1113.36816,0.0233184267
1112.08252,0.0229171291
1110.79688,0.0225477442
1109.51123,0.0222026743
1108.22559,0.0218497105
1106.93994,0.0214699432
1105.65430,0.0210657269
1104.36865,0.0206450280
1103.08301,0.0202206410
1101.79736,0.0198185593
1100.51172,0.0194616020
1099.22607,0.0191497039
1097.94043,0.0188830439
1096.65479,0.0186884273
1095.36914,0.0185919888
1094.08350,0.0185746420
1092.79785,0.0185945276
1091.51221,0.0186409764
1090.22656,0.0187314507
1088.94092,0.0188719053
1087.65527,0.0190616027
1086.36963,0.0193142425
1085.08398,0.0196244437
1083.79834,0.0199326444
1082.51270,0.0201681685
1081.22705,0.0203237366
1079.94141,0.0204464458
1078.65576,0.0205603130
1077.37012,0.0206363145
1076.08447,0.0206369925
1074.79883,0.0205582771
1073.51318,0.0204296783
1072.22754,0.0202963930
1070.94189,0.0202037189
1069.65625,0.0201741885
1068.37061,0.0201953650
1067.08496,0.0202445351
1065.79932,0.0203232206
1064.51367,0.0204494838
1063.22803,0.0206273831
1061.94238,0.0208455753
1060.65674,0.0210916791
1059.37109,0.0213330258
1058.08545,0.0215042140
1056.79980,0.0215591080
1055.51416,0.0215248596
1054.22852,0.0214543324
1052.94287,0.0213356353
1051.65723,0.0211103726
1050.37158,0.0207793135
1049.08594,0.0204317402
1047.80029,0.0201567244
1046.51465,0.0199644640
1045.22900,0.0198066402
1043.94336,0.0196375810
1042.65771,0.0194441918
1041.37207,0.0192381758
1040.08643,0.0190319046
1038.80078,0.0188189205
1037.51514,0.0185815580
1036.22949,0.0183272362
1034.94385,0.0181087665
1033.65820,0.0179877412
1032.37256,0.0179690439
1031.08691,0.0179807264
1029.80127,0.0179367494
1028.51563,0.0178192798
1027.22998,0.0176832359
1025.94434,0.0175728705
1024.65869,0.0174589176
1023.37305,0.0172829051
1022.08740,0.0170573667
1020.80176,0.0168865751
1019.51611,0.0168620031
1018.23047,0.0169563629
1016.94482,0.0170556158
1015.65918,0.0170966219
1014.37354,0.0171262957
1013.08789,0.0172090512
1011.80225,0.0173270013
1010.51660,0.0174087193
1009.23096,0.0174248051
1007.94531,0.0174134877
1006.65967,0.0174251813
1005.37402,0.0174693484
1004.08838,0.0175101236
1002.80273,0.0175032504
1001.51709,0.0174435861
1000.23145,0.0173708629
998.94580,0.0173222609
997.66016,0.0172899626
996.37451,0.0172408838
995.08887,0.0171642900
993.80322,0.0170846675
992.51758,0.0170392748
991.23193,0.0170482397
989.94629,0.0170943066
988.66064,0.0171372816
987.37500,0.0171614364
986.08936,0.0171896853
984.80371,0.0172234587
983.51807,0.0172035825
982.23242,0.0170796867
980.94678,0.0168991163
979.66113,0.0167705175
978.37549,0.0167401172
977.08984,0.0167500153
975.80420,0.0167231131
974.51855,0.0166530367
973.23291,0.0165943522
971.94727,0.0165887829
970.66162,0.0166177768
969.37598,0.0166265983
968.09033,0.0165905599
966.80469,0.0165471546
965.51904,0.0165503286
964.23340,0.0165964477
962.94775,0.0166113749
961.66211,0.0165223628
960.37646,0.0163269974
959.09082,0.0160913728
957.80518,0.0158898644
956.51953,0.0157646239
955.23389,0.0157350451
953.94824,0.0158187971
952.66260,0.0160118639
951.37695,0.0162487626
950.09131,0.0164188482
948.80566,0.0164600909
947.52002,0.0164262131
946.23438,0.0164231211
944.94873,0.0164843686
943.66309,0.0165455677
942.37744,0.0165415350
941.09180,0.0164750926
939.80615,0.0163684990
938.52051,0.0161973853
937.23486,0.0159214698
935.94922,0.0155654158
934.66357,0.0152245061
933.37793,0.0149857532
932.09229,0.0148663446
930.80664,0.0148256030
929.52100,0.0147989793
928.23535,0.0147061041
926.94971,0.0144715169
925.66406,0.0140942130
924.37842,0.0136835510
923.09277,0.0133691812
921.80713,0.0131579135
920.52148,0.0129290130
919.23584,0.0125898719
917.95020,0.0121997716
916.66455,0.0119087147
915.37891,0.0117966132
914.09326,0.0118065877
912.80762,0.0118266167
911.52197,0.0118067469
910.23633,0.0117914258
908.95068,0.0118530327
907.66504,0.0120023219
906.37939,0.0121720303
905.09375,0.0122822579
903.80811,0.0123157045
902.52246,0.0123147722
901.23682,0.0123134153
899.95117,0.0122908065
