3999.64014,0.0019193045
3998.35449,0.0020013705
3997.06885,0.0018766136
3995.78320,0.0017657202
3994.49756,0.0017302432
3993.21191,0.0016419926
3991.92627,0.0013712195
3990.64063,0.0009588904
3989.35498,0.0006136979
3988.06934,0.0005166028
3986.78369,0.0006437950
3985.49805,0.0008352628
3984.21240,0.0010176817
3982.92676,0.0012592088
3981.64111,0.0015977700
3980.35547,0.0019354775
3979.06982,0.0021479365
3977.78418,0.0022079556
3976.49854,0.0021696587
3975.21289,0.0021096969
3973.92725,0.0020925812
3972.64160,0.0021109194
3971.35596,0.0020844659
3970.07031,0.0019887059
3968.78467,0.0019235949
3967.49902,0.0019567471
3966.21338,0.0019725054
3964.92773,0.0018068406
3963.64209,0.0014870255
3962.35645,0.0012391412
3961.07080,0.0012432430
3959.78516,0.0014269501
3958.49951,0.0015472132
3957.21387,0.0014698046
3955.92822,0.0013069280
3954.64258,0.0012543282
3953.35693,0.0013445514
3952.07129,0.0014388710
3950.78564,0.0014233661
3949.50000,0.0013174695
3948.21436,0.0011809949
3946.92871,0.0010123628
3945.64307,0.0007993172
3944.35742,0.0006104576
3943.07178,0.0005757230
3941.78613,0.0007639711
3940.50049,0.0010847591
3939.21484,0.0013579242
3937.92920,0.0014634671
3936.64355,0.0013740499
3935.35791,0.0011183925
3934.07227,0.0007923930
3932.78662,0.0005598860
3931.50098,0.0005466414
3930.21533,0.0006947913
3928.92969,0.0008178602
3927.64404,0.0008246292
3926.35840,0.0007910704
3925.07275,0.0008699663
3923.78711,0.0011634747
3922.50146,0.0016082926
3921.21582,0.0020112526
3919.93018,0.0022439917
3918.64453,0.0023164896
3917.35889,0.0022759456
3916.07324,0.0021445546
3914.78760,0.0019846491
3913.50195,0.0018829315
3912.21631,0.0018310675
3910.93066,0.0017551158
3909.64502,0.0016739541
3908.35938,0.0017346875
3907.07373,0.0020408228
3905.78809,0.0024925808
3904.50244,0.0028108447
3903.21680,0.0027368052
3901.93115,0.0022906482
3900.64551,0.0017397297
3899.35986,0.0013223508
3898.07422,0.0011875359
3896.78857,0.0014099652
3895.50293,0.0018680345
3894.21729,0.0022523184
3892.93164,0.0022779235
3891.64600,0.0019222948
3890.36035,0.0015267947
3889.07471,0.0014545582
3887.78906,0.0016721351
3886.50342,0.0018933049
3885.21777,0.0018763018
3883.93213,0.0016106570
3882.64648,0.0013466028
3881.36084,0.0012730722
3880.07520,0.0013067203
3878.78955,0.0013138604
3877.50391,0.0013720246
3876.21826,0.0016188155
3874.93262,0.0019983018
3873.64697,0.0023071731
3872.36133,0.0024234632
3871.07568,0.0024195064
3869.79004,0.0023807227
3868.50439,0.0022574184
3867.21875,0.0020116947
3865.93311,0.0017347654
3864.64746,0.0015513438
3863.36182,0.0015486680
3862.07617,0.0017055543
3860.79053,0.0018661625
3859.50488,0.0019015986
3858.21924,0.0018515263
3856.93359,0.0018533462
3855.64795,0.0019483222
3854.36230,0.0018986086
3853.07666,0.0012743184
3851.79102,0.0002965214
3850.50537,-0.0001038938
3849.21973,0.0000999831
3847.93408,0.0003692391
3846.64844,0.0004715618
3845.36279,0.0005242742
3844.07715,0.0007877769
3842.79150,0.0014233402
3841.50586,0.0022971800
3840.22021,0.0030122630
3838.93457,0.0032177127
3837.64893,0.0029365213
3836.36328,0.0025518402
3835.07764,0.0022999905
3833.79199,0.0020539828
3832.50635,0.0016781379
3831.22070,0.0012370126
3829.93506,0.0008988879
3828.64941,0.0007773779
3827.36377,0.0008618478
3826.07813,0.0010295395
3824.79248,0.0011389474
3823.50684,0.0011593738
3822.22119,0.0011702492
3820.93555,0.0012607406
3819.64990,0.0014575971
3818.36426,0.0016713555
3817.07861,0.0016835690
3815.79297,0.0012897660
3814.50732,0.0005984557
3813.22168,0.0000632958
3811.93604,-0.0000579807
3810.65039,0.0001190400
3809.36475,0.0004118339
3808.07910,0.0007196304
3806.79346,0.0009868840
3805.50781,0.0011990091
3804.22217,0.0013974479
3802.93652,0.0015793756
3801.65088,0.0016497099
3800.36523,0.0015888065
3799.07959,0.0015444856
3797.79395,0.0015265609
3796.50830,0.0013214940
3795.22266,0.0008817681
3793.93701,0.0005238595
3792.65137,0.0005768894
3791.36572,0.0009998566
3790.08008,0.0014975455
3788.79443,0.0018615871
3787.50879,0.0021412247
3786.22314,0.0024628236
3784.93750,0.0027623086
3783.65186,0.0028569365
3782.36621,0.0027492049
3781.08057,0.0025935299
3779.79492,0.0023884533
3778.50928,0.0019922166
3777.22363,0.0014711552
3775.93799,0.0011175880
3774.65234,0.0010701490
3773.36670,0.0012223974
3772.08105,0.0013863592
3770.79541,0.0013899688
3769.50977,0.0011888597
3768.22412,0.0010118438
3766.93848,0.0011631893
3765.65283,0.0016225571
3764.36719,0.0021181509
3763.08154,0.0024944029
3761.79590,0.0027499604
3760.51025,0.0027956553
3759.22461,0.0024631619
3757.93896,0.0018574536
3756.65332,0.0014605322
3755.36768,0.0016015114
3754.08203,0.0022061081
3752.79639,0.0030648676
3751.51074,0.0038896482
3750.22510,0.0041767638
3748.93945,0.0036942712
3747.65381,0.0030447163
3746.36816,0.0027747871
3745.08252,0.0028000842
3743.79688,0.0027801278
3742.51123,0.0026095975
3741.22559,0.0025147630
3739.93994,0.0026398071
3738.65430,0.0029593259
3737.36865,0.0034147799
3736.08301,0.0038806377
3734.79736,0.0040617273
3733.51172,0.0036912169
3732.22607,0.0029853634
3730.94043,0.0024590748
3729.65479,0.0023758814
3728.36914,0.0026923670
3727.08350,0.0032128619
3725.79785,0.0036682172
3724.51221,0.0038236512
3723.22656,0.0036714280
3721.94092,0.0034396446
3720.65527,0.0033491419
3719.36963,0.0034313477
3718.08398,0.0035696542
3716.79834,0.0036555300
3715.51270,0.0036665464
3714.22705,0.0035925701
3712.94141,0.0033418641
3711.65576,0.0028186608
3710.37012,0.0022160732
3709.08447,0.0019625979
3707.79883,0.0021047546
3706.51318,0.0023900410
3705.22754,0.0027485278
3703.94189,0.0032147400
3702.65625,0.0036497870
3701.37061,0.0037543476
3700.08496,0.0034478900
3698.79932,0.0030486528
3697.51367,0.0028666556
3696.22803,0.0029404829
3694.94238,0.0031794312
3693.65674,0.0034914922
3692.37109,0.0037823655
3691.08545,0.0039200783
3689.79980,0.0037304051
3688.51416,0.0031277251
3687.22852,0.0023525350
3685.94287,0.0017733618
3684.65723,0.0014860125
3683.37158,0.0014076279
3682.08594,0.0014798825
3680.80029,0.0017318805
3679.51465,0.0022443300
3678.22900,0.0030259220
3676.94336,0.0038276729
3675.65771,0.0040629818
3674.37207,0.0033960477
3673.08643,0.0026143892
3671.80078,0.0025544700
3670.51514,0.0030103603
3669.22949,0.0033195871
3667.94385,0.0031631598
3666.65820,0.0028368733
3665.37256,0.0026169934
3664.08691,0.0024684467
3662.80127,0.0023140176
3661.51563,0.0021838117
3660.22998,0.0021712198
3658.94434,0.0023499844
3657.65869,0.0027297977
3656.37305,0.0032433227
3655.08740,0.0037916619
3653.80176,0.0043808040
3652.51611,0.0051621408
3651.23047,0.0062573664
3649.94482,0.0074907076
3648.65918,0.0081089186
3647.37354,0.0074568666
3646.08789,0.0063496330
3644.80225,0.0057641896
3643.51660,0.0056370893
3642.23096,0.0055805533
3640.94531,0.0054556821
3639.65967,0.0054042544
3638.37402,0.0055185193
3637.08838,0.0055987248
3635.80273,0.0054245158
3634.51709,0.0052017504
3633.23145,0.0054939808
3631.94580,0.0066104396
3630.66016,0.0081762560
3629.37451,0.0092608714
3628.08887,0.0090043619
3626.80322,0.0079146661
3625.51758,0.0074870992
3624.23193,0.0080444654
3622.94629,0.0088913171
3621.66064,0.0092676412
3620.37500,0.0088016521
3619.08936,0.0078777876
3617.80371,0.0076177195
3616.51807,0.0086986683
3615.23242,0.0104305251
3613.94678,0.0115925157
3612.66113,0.0115328077
3611.37549,0.0107001886
3610.08984,0.0102442950
3608.80420,0.0108076818
3607.51855,0.0120283496
3606.23291,0.0131838489
3604.94727,0.0140254432
3603.66162,0.0147067755
3602.37598,0.0152871627
3601.09033,0.0157031585
3599.80469,0.0159302503
3598.51904,0.0159425475
3597.23340,0.0156801585
3595.94775,0.0152968168
3594.66211,0.0152072674
3593.37646,0.0155738657
3592.09082,0.0159074254
3590.80518,0.0156206097
3589.51953,0.0146905482
3588.23389,0.0135757439
3586.94824,0.0128131825
3585.66260,0.0126335500
3584.37695,0.0128397103
3583.09131,0.0131703205
3581.80566,0.0134582184
3580.52002,0.0135212643
3579.23438,0.0132727688
3577.94873,0.0129425609
3576.66309,0.0129616568
3575.37744,0.0134896208
3574.09180,0.0141995028
3572.80615,0.0147003196
3571.52051,0.0150747197
3570.23486,0.0157381836
3568.94922,0.0167269595
3567.66357,0.0172226243
3566.37793,0.0162003692
3565.09229,0.0141829187
3563.80664,0.0129410410
3562.52100,0.0128983455
3561.23535,0.0131106349
3559.94971,0.0129373865
3558.66406,0.0126442369
3557.37842,0.0126892794
3556.09277,0.0129568819
3554.80713,0.0130609339
3553.52148,0.0130575998
3552.23584,0.0133917667
3550.95020,0.0141252885
3549.66455,0.0146628357
3548.37891,0.0145921540
3547.09326,0.0144056035
3545.80762,0.0150570320
3544.52197,0.0166908596
3543.23633,0.0181026123
3541.95068,0.0181634463
3540.66504,0.0172248855
3539.37939,0.0164300054
3538.09375,0.0161488075
3536.80811,0.0156487580
3535.52246,0.0143462308
3534.23682,0.0128624551
3532.95117,0.0122450860
3531.66553,0.0125969350
3530.37988,0.0131009240
3529.09424,0.0130294561
3527.80859,0.0123032155
3526.52295,0.0113836518
3525.23730,0.0109693035
3523.95166,0.0115537541
3522.66602,0.0129442671
3521.38037,0.0143138049
3520.09473,0.0149267009
3518.80908,0.0146610131
3517.52344,0.0138160484
3516.23779,0.0127016734
3514.95215,0.0114069562
3513.66650,0.0098157814
3512.38086,0.0079758307
3511.09521,0.0064217686
3509.80957,0.0058092056
3508.52393,0.0060155112
3507.23828,0.0060509196
3505.95264,0.0051107747
3504.66699,0.0033234998
3503.38135,0.0014392606
3502.09570,0.0002474886
3500.81006,0.0001171757
3499.52441,0.0008800043
3498.23877,0.0022201580
3496.95313,0.0040613092
3495.66748,0.0063979928
3494.38184,0.0087985611
3493.09619,0.0103707369
3491.81055,0.0104896305
3490.52490,0.0095675969
3489.23926,0.0089690555
3487.95361,0.0096705211
3486.66797,0.0108231269
3485.38232,0.0103476457
3484.09668,0.0074546807
3482.81104,0.0037259138
3481.52539,0.0010813855
3480.23975,-0.0005167387
3478.95410,-0.0021756927
3477.66846,-0.0036350286
3476.38281,-0.0034731224
3475.09717,-0.0014567978
3473.81152,0.0007668236
3472.52588,0.0015311069
3471.24023,0.0010166180
3469.95459,0.0006933653
3468.66895,0.0013622087
3467.38330,0.0023935551
3466.09766,0.0029106692
3464.81201,0.0030105687
3463.52637,0.0033336210
3462.24072,0.0037771168
3460.95508,0.0032803055
3459.66943,0.0008994587
3458.38379,-0.0031679906
3457.09814,-0.0075328080
3455.81250,-0.0103151957
3454.52686,-0.0104305502
3453.24121,-0.0086230543
3451.95557,-0.0070547154
3450.66992,-0.0075628269
3449.38428,-0.0102218566
3448.09863,-0.0134712327
3446.81299,-0.0155365802
3445.52734,-0.0156885590
3444.24170,-0.0143687185
3442.95605,-0.0122241136
3441.67041,-0.0094090309
3440.38477,-0.0058530625
3439.09912,-0.0018622247
3437.81348,0.0014729215
3436.52783,0.0024253374
3435.24219,-0.0003256787
3433.95654,-0.0059819669
3432.67090,-0.0110828774
3431.38525,-0.0120487101
3430.09961,-0.0080164224
3428.81396,-0.0015085996
3427.52832,0.0031647766
3426.24268,0.0025168979
3424.95703,-0.0034766661
3423.67139,-0.0107932501
3422.38574,-0.0140596209
3421.10010,-0.0102298986
3419.81445,-0.0007734050
3418.52881,0.0088026300
3417.24316,0.0125633590
3415.95752,0.0083376663
3414.67188,-0.0003768397
3413.38623,-0.0075187651
3412.10059,-0.0096156355
3410.81494,-0.0080975844
3409.52930,-0.0065972572
3408.24365,-0.0074128630
3406.95801,-0.0100403335
3405.67236,-0.0120958900
3404.38672,-0.0121158781
3403.10107,-0.0118674925
3401.81543,-0.0144722871
3400.52979,-0.0202542096
3399.24414,-0.0265057795
3397.95850,-0.0308831260
3396.67285,-0.0322615206
3395.38721,-0.0292705167
3394.10156,-0.0217219070
3392.81592,-0.0135062141
3391.53027,-0.0098552387
3390.24463,-0.0119897397
3388.95898,-0.0168247409
3387.67334,-0.0216143914
3386.38770,-0.0266152117
3385.10205,-0.0325365104
3383.81641,-0.0374182016
3382.53076,-0.0379418321
3381.24512,-0.0331490040
3379.95947,-0.0251528434
3378.67383,-0.0171312802
3377.38818,-0.0117885461
3376.10254,-0.0105704321
3374.81689,-0.0131737003
3373.53125,-0.0174639132
3372.24561,-0.0214788597
3370.95996,-0.0259216875
3369.67432,-0.0331463702
3368.38867,-0.0438672453
3367.10303,-0.0551705249
3365.81738,-0.0617627949
3364.53174,-0.0594101772
3363.24609,-0.0483780950
3361.96045,-0.0341534279
3360.67480,-0.0239350926
3359.38916,-0.0216228627
3358.10352,-0.0262070075
3356.81787,-0.0338100195
3355.53223,-0.0400230512
3354.24658,-0.0416010544
3352.96094,-0.0381185152
3351.67529,-0.0323401019
3350.38965,-0.0274943281
3349.10400,-0.0247188602
3347.81836,-0.0227602553
3346.53271,-0.0202310346
3345.24707,-0.0179288015
3343.96143,-0.0182811245
3342.67578,-0.0221868400
3341.39014,-0.0269388594
3340.10449,-0.0282435138
3338.81885,-0.0248297676
3337.53320,-0.0203752536
3336.24756,-0.0198661443
3334.96191,-0.0248711817
3333.67627,-0.0326993205
3332.39063,-0.0391947404
3331.10498,-0.0418389253
3329.81934,-0.0405766591
3328.53369,-0.0371070169
3327.24805,-0.0334842652
3325.96240,-0.0305867214
3324.67676,-0.0274364892
3323.39111,-0.0227575507
3322.10547,-0.0174791794
3320.81982,-0.0147935478
3319.53418,-0.0168088041
3318.24854,-0.0221860521
3316.96289,-0.0277635586
3315.67725,-0.0314387307
3314.39160,-0.0325484239
3313.10596,-0.0309057441
3311.82031,-0.0274470896
3310.53467,-0.0245037619
3309.24902,-0.0237787720
3307.96338,-0.0247640479
3306.67773,-0.0258454010
3305.39209,-0.0266613718
3304.10645,-0.0288041010
3302.82080,-0.0340802036
3301.53516,-0.0420456156
3300.24951,-0.0495739952
3298.96387,-0.0534870662
3297.67822,-0.0536901094
3296.39258,-0.0527725145
3295.10693,-0.0526438020
3293.82129,-0.0524501242
3292.53564,-0.0509120971
3291.25000,-0.0480675809
3289.96436,-0.0450266153
3288.67871,-0.0432976261
3287.39307,-0.0439844169
3286.10742,-0.0464379154
3284.82178,-0.0480725430
3283.53613,-0.0467530303
3282.25049,-0.0424200930
3280.96484,-0.0361660086
3279.67920,-0.0289275795
3278.39355,-0.0224486161
3277.10791,-0.0198390931
3275.82227,-0.0229723882
3274.53662,-0.0297030229
3273.25098,-0.0357446633
3271.96533,-0.0393093005
3270.67969,-0.0423856676
3269.39404,-0.0468181111
3268.10840,-0.0510422438
3266.82275,-0.0520016290
3265.53711,-0.0489610732
3264.25146,-0.0437372252
3262.96582,-0.0387063883
3261.68018,-0.0355825573
3260.39453,-0.0351988003
3259.10889,-0.0366099291
3257.82324,-0.0373782963
3256.53760,-0.0365503952
3255.25195,-0.0362136886
3253.96631,-0.0388818532
3252.68066,-0.0441275053
3251.39502,-0.0492643341
3250.10938,-0.0519201830
3248.82373,-0.0516662113
3247.53809,-0.0506306253
3246.25244,-0.0522043556
3244.96680,-0.0578411371
3243.68115,-0.0652405396
3242.39551,-0.0708100349
3241.10986,-0.0729815811
3239.82422,-0.0718617067
3238.53857,-0.0673369318
3237.25293,-0.0598154142
3235.96729,-0.0516230911
3234.68164,-0.0454221815
3233.39600,-0.0421341434
3232.11035,-0.0415300578
3230.82471,-0.0436614752
3229.53906,-0.0482915193
3228.25342,-0.0536174476
3226.96777,-0.0570984036
3225.68213,-0.0575857908
3224.39648,-0.0558001511
3223.11084,-0.0527532063
3221.82520,-0.0489567295
3220.53955,-0.0454659201
3219.25391,-0.0443489514
3217.96826,-0.0465479679
3216.68262,-0.0501300022
3215.39697,-0.0521320030
3214.11133,-0.0515044704
3212.82568,-0.0490519069
3211.54004,-0.0455393940
3210.25439,-0.0411696360
3208.96875,-0.0367693640
3207.68311,-0.0337263420
3206.39746,-0.0330773406
3205.11182,-0.0350703485
3203.82617,-0.0395510346
3202.54053,-0.0455984063
3201.25488,-0.0507295839
3199.96924,-0.0518222824
3198.68359,-0.0479538329
3197.39795,-0.0420663394
3196.11230,-0.0385878272
3194.82666,-0.0392046794
3193.54102,-0.0421472006
3192.25537,-0.0452808663
3190.96973,-0.0478949472
3189.68408,-0.0495919175
3188.39844,-0.0494664609
3187.11279,-0.0471698269
3185.82715,-0.0437080152
3184.54150,-0.0406014174
3183.25586,-0.0387557261
3181.97021,-0.0382385701
3180.68457,-0.0386256278
3179.39893,-0.0393082537
3178.11328,-0.0398419462
3176.82764,-0.0402234755
3175.54199,-0.0407699496
3174.25635,-0.0415879264
3172.97070,-0.0422246717
3171.68506,-0.0419889353
3170.39941,-0.0405453481
3169.11377,-0.0381397605
3167.82813,-0.0353750661
3166.54248,-0.0329963490
3165.25684,-0.0315306485
3163.97119,-0.0308265612
3162.68555,-0.0303290337
3161.39990,-0.0301752351
3160.11426,-0.0313180313
3158.82861,-0.0340232402
3157.54297,-0.0368190706
3156.25732,-0.0377468131
3154.97168,-0.0363032706
3153.68604,-0.0336141847
3152.40039,-0.0310907029
3151.11475,-0.0293647386
3149.82910,-0.0282220226
3148.54346,-0.0272138342
3147.25781,-0.0262347385
3145.97217,-0.0254411586
3144.68652,-0.0247704051
3143.40088,-0.0239447970
3142.11523,-0.0228993632
3140.82959,-0.0217723828
3139.54395,-0.0206348188
3138.25830,-0.0197514407
3136.97266,-0.0197219532
3135.68701,-0.0206979569
3134.40137,-0.0217061993
3133.11572,-0.0215380825
3131.83008,-0.0201248769
3130.54443,-0.0184284244
3129.25879,-0.0172042865
3127.97314,-0.0164293125
3126.68750,-0.0157385897
3125.40186,-0.0149297323
3124.11621,-0.0139987683
3122.83057,-0.0129269250
3121.54492,-0.0116035920
3120.25928,-0.0100555094
3118.97363,-0.0086859846
3117.68799,-0.0080038700
3116.40234,-0.0080254199
3115.11670,-0.0082616368
3113.83105,-0.0083727660
3112.54541,-0.0084509142
3111.25977,-0.0084952880
3109.97412,-0.0081541380
3108.68848,-0.0072969575
3107.40283,-0.0064006913
3106.11719,-0.0059722136
3104.83154,-0.0058862120
3103.54590,-0.0056970906
3102.26025,-0.0053564454
3100.97461,-0.0051635122
3099.68896,-0.0051157270
3098.40332,-0.0047671995
3097.11768,-0.0037917432
3095.83203,-0.0024004895
3094.54639,-0.0011619151
3093.26074,-0.0005122917
3091.97510,-0.0004139781
3090.68945,-0.0003476130
3089.40381,0.0002518399
3088.11816,0.0013679216
3086.83252,0.0022934068
3085.54688,0.0023737992
3084.26123,0.0017971710
3082.97559,0.0014010316
3081.68994,0.0017468509
3080.40430,0.0026724152
3079.11865,0.0037500397
3077.83301,0.0048432490
3076.54736,0.0060291332
3075.26172,0.0072041317
3073.97607,0.0080356319
3072.69043,0.0083110677
3071.40479,0.0081912912
3070.11914,0.0080818329
3068.83350,0.0082579032
3067.54785,0.0086620143
3066.26221,0.0090930378
3064.97656,0.0095403939
3063.69092,0.0101591730
3062.40527,0.0109133692
3061.11963,0.0114537310
3059.83398,0.0114882300
3058.54834,0.0111205997
3057.26270,0.0107197165
3055.97705,0.0105790347
3054.69141,0.0107973311
3053.40576,0.0113450410
3052.12012,0.0120773735
3050.83447,0.0127539448
3049.54883,0.0132047692
3048.26318,0.0135054020
3046.97754,0.0139193172
3045.69189,0.0146317491
3044.40625,0.0155580109
3043.12061,0.0164323729
3041.83496,0.0170664657
3040.54932,0.0174895059
3039.26367,0.0178082753
3037.97803,0.0180119984
3036.69238,0.0180131309
3035.40674,0.0178512670
3034.12109,0.0177355986
3032.83545,0.0178549886
3031.54980,0.0182280969
3030.26416,0.0187490992
3028.97852,0.0193137024
3027.69287,0.0198744889
3026.40723,0.0204298664
3025.12158,0.0209771805
3023.83594,0.0214605331
3022.55029,0.0217919219
3021.26465,0.0219738297
3019.97900,0.0221716985
3018.69336,0.0225662831
3017.40771,0.0231100488
3016.12207,0.0235327315
3014.83643,0.0236535911
3013.55078,0.0236062203
3012.26514,0.0236529894
3010.97949,0.0238499269
3009.69385,0.0240406599
3008.40820,0.0241519194
3007.12256,0.0243206918
3005.83691,0.0246949866
3004.55127,0.0252319314
3003.26563,0.0257586911
3001.97998,0.0261681788
3000.69434,0.0265030451
2999.40869,0.0268660616
2998.12305,0.0272801258
2996.83740,0.0276418924
2995.55176,0.0278177671
2994.26611,0.0277695004
2992.98047,0.0275697280
2991.69482,0.0273284782
2990.40918,0.0271513369
2989.12354,0.0271215793
2987.83789,0.0272468291
2986.55225,0.0274442751
2985.26660,0.0276448727
2983.98096,0.0278878696
2982.69531,0.0282481797
2981.40967,0.0287004858
2980.12402,0.0291293096
2978.83838,0.0294579100
2977.55273,0.0297036190
2976.26709,0.0299094766
2974.98145,0.0300864112
2973.69580,0.0302313082
2972.41016,0.0303658135
2971.12451,0.0305212457
2969.83887,0.0306953229
2968.55322,0.0308231059
2967.26758,0.0308027118
2965.98193,0.0305800140
2964.69629,0.0302446038
2963.41064,0.0300067104
2962.12500,0.0300165601
2960.83936,0.0302151032
2959.55371,0.0304128714
2958.26807,0.0304976963
2956.98242,0.0305025596
2955.69678,0.0304983370
2954.41113,0.0305341054
2953.12549,0.0306761004
2951.83984,0.0309838187
2950.55420,0.0314011052
2949.26855,0.0317557938
2947.98291,0.0319194719
2946.69727,0.0319274925
2945.41162,0.0319153182
2944.12598,0.0319687575
2942.84033,0.0320543349
2941.55469,0.0320751779
2940.26904,0.0319660567
2938.98340,0.0317341276
2937.69775,0.0314261504
2936.41211,0.0310938675
2935.12646,0.0307938196
2933.84082,0.0305708759
2932.55518,0.0304042939
2931.26953,0.0301912092
2929.98389,0.0298296679
2928.69824,0.0293383840
2927.41260,0.0288756266
2926.12695,0.0286225043
2924.84131,0.0286308564
2923.55566,0.0287905373
2922.27002,0.0289435480
2920.98438,0.0290149748
2919.69873,0.0290350933
2918.41309,0.0290809534
2917.12744,0.0292298608
2915.84180,0.0295348167
2914.55615,0.0299928710
2913.27051,0.0305282716
2911.98486,0.0310201272
2910.69922,0.0313714966
2909.41357,0.0315790139
2908.12793,0.0317478031
2906.84229,0.0319948122
2905.55664,0.0323125869
2904.27100,0.0325600877
2902.98535,0.0326144658
2901.69971,0.0324989036
2900.41406,0.0323347263
2899.12842,0.0322134644
2897.84277,0.0321597457
2896.55713,0.0321799032
2895.27148,0.0322817788
2893.98584,0.0324485488
2892.70020,0.0326268300
2891.41455,0.0327494666
2890.12891,0.0327680819
2888.84326,0.0326868035
2887.55762,0.0325801186
2886.27197,0.0325419791
2884.98633,0.0325897709
2883.70068,0.0326486230
2882.41504,0.0326579437
2881.12939,0.0326523371
2879.84375,0.0326828398
2878.55811,0.0327040777
2877.27246,0.0326120108
2875.98682,0.0323930420
2874.70117,0.0321617834
2873.41553,0.0320272185
2872.12988,0.0319700949
2870.84424,0.0318867601
2869.55859,0.0317314267
2868.27295,0.0315653980
2866.98730,0.0314666741
2865.70166,0.0314327478
2864.41602,0.0314067267
2863.13037,0.0313730873
2861.84473,0.0313718356
2860.55908,0.0314089544
2859.27344,0.0313941799
2857.98779,0.0312014073
2856.70215,0.0307825077
2855.41650,0.0302159898
2854.13086,0.0296635125
2852.84521,0.0292894505
2851.55957,0.0291962791
2850.27393,0.0293903202
2848.98828,0.0297846161
2847.70264,0.0302522071
2846.41699,0.0307087936
2845.13135,0.0311376918
2843.84570,0.0315302983
2842.56006,0.0318255909
2841.27441,0.0319476910
2839.98877,0.0319010541
2838.70313,0.0317945853
2837.41748,0.0317550153
2836.13184,0.0318255909
2834.84619,0.0319510363
2833.56055,0.0320452228
2832.27490,0.0320616923
2830.98926,0.0320120044
2829.70361,0.0319438502
2828.41797,0.0319106616
2827.13232,0.0319420956
2825.84668,0.0320195816
2824.56104,0.0320849344
2823.27539,0.0320941582
2821.98975,0.0320604667
2820.70410,0.0320214778
2819.41846,0.0319720171
2818.13281,0.0318628624
2816.84717,0.0316691063
2815.56152,0.0314326622
2814.27588,0.0312248338
2812.99023,0.0310910586
2811.70459,0.0310330279
2810.41895,0.0310160965
2809.13330,0.0309834853
2807.84766,0.0308913346
2806.56201,0.0307393838
2805.27637,0.0305539332
2803.99072,0.0303498525
2802.70508,0.0301447287
2801.41943,0.0299916808
2800.13379,0.0299437791
2798.84814,0.0299793072
2797.56250,0.0300074350
2796.27686,0.0299618635
2794.99121,0.0298616104
2793.70557,0.0297792088
2792.41992,0.0297756102
2791.13428,0.0298572350
2789.84863,0.0299726520
2788.56299,0.0300494581
2787.27734,0.0300441328
2785.99170,0.0299507417
2784.70605,0.0297767166
2783.42041,0.0295437109
2782.13477,0.0293057356
2780.84912,0.0291236620
2779.56348,0.0290140882
2778.27783,0.0289498027
2776.99219,0.0289154984
2775.70654,0.0289286375
2774.42090,0.0289938003
2773.13525,0.0290678069
2771.84961,0.0291007441
2770.56396,0.0290981717
2769.27832,0.0291094352
2767.99268,0.0291465558
2766.70703,0.0291548353
2765.42139,0.0290759709
2764.13574,0.0289161317
2762.85010,0.0287336428
2761.56445,0.0285953265
2760.27881,0.0285571739
2758.99316,0.0286458116
2757.70752,0.0288207978
2756.42188,0.0289752074
2755.13623,0.0290091895
2753.85059,0.0289276969
2752.56494,0.0288520586
2751.27930,0.0289050080
2749.99365,0.0290666465
2748.70801,0.0291728005
2747.42236,0.0290865712
2746.13672,0.0288454983
2744.85107,0.0286069661
2743.56543,0.0284945071
2742.27979,0.0285260752
2740.99414,0.0286456198
2739.70850,0.0287716724
2738.42285,0.0288459715
2737.13721,0.0288766790
2735.85156,0.0289217755
2734.56592,0.0290187076
2733.28027,0.0291508492
2731.99463,0.0292703751
2730.70898,0.0293212142
2729.42334,0.0292587969
2728.13770,0.0290947929
2726.85205,0.0289114527
2725.56641,0.0287965648
2724.28076,0.0287723895
2722.99512,0.0288105924
2721.70947,0.0288869720
2720.42383,0.0289846137
2719.13818,0.0290631000
2717.85254,0.0290661734
2716.56689,0.0289724115
2715.28125,0.0288172290
2713.99561,0.0286688209
2712.70996,0.0285933372
2711.42432,0.0286270697
2710.13867,0.0287429094
2708.85303,0.0288500097
2707.56738,0.0288671330
2706.28174,0.0288049746
2704.99609,0.0287405271
2703.71045,0.0287237111
2702.42480,0.0287524778
2701.13916,0.0288172290
2699.85352,0.0289033223
2698.56787,0.0289669875
2697.28223,0.0289754570
2695.99658,0.0289664082
2694.71094,0.0290081631
2693.42529,0.0291106012
2692.13965,0.0292177610
2690.85400,0.0292636696
2689.56836,0.0292098150
2688.28271,0.0290685557
2686.99707,0.0289190933
2685.71143,0.0288627092
2684.42578,0.0289340317
2683.14014,0.0290818959
2681.85449,0.0292358138
2680.56885,0.0293598529
2679.28320,0.0294593740
2677.99756,0.0295697339
2676.71191,0.0297236573
2675.42627,0.0299004335
2674.14063,0.0300343987
2672.85498,0.0300896857
2671.56934,0.0300954804
2670.28369,0.0300945677
2668.99805,0.0300985612
2667.71240,0.0301055796
2666.42676,0.0301223118
2665.14111,0.0301567428
2663.85547,0.0302142687
2662.56982,0.0303007495
2661.28418,0.0304138158
2659.99854,0.0305357724
2658.71289,0.0306474306
2657.42725,0.0307350233
2656.14160,0.0307804532
2654.85596,0.0307766981
2653.57031,0.0307635851
2652.28467,0.0308110472
2650.99902,0.0309453160
2649.71338,0.0311101060
2648.42773,0.0312244128
2647.14209,0.0312662460
2645.85645,0.0312855020
2644.57080,0.0313453972
2643.28516,0.0314592943
2641.99951,0.0315818526
2640.71387,0.0316517018
2639.42822,0.0316466615
2638.14258,0.0316055678
2636.85693,0.0315976627
2635.57129,0.0316633172
2634.28564,0.0317723937
2633.00000,0.0318449773
2631.71436,0.0318289027
2630.42871,0.0317618959
2629.14307,0.0317443758
2627.85742,0.0318407416
2626.57178,0.0320188291
2625.28613,0.0321869813
2624.00049,0.0322737992
2622.71484,0.0322730169
2621.42920,0.0322342925
2620.14355,0.0322162285
2618.85791,0.0322222486
2617.57227,0.0321798474
2616.28662,0.0320160948
2615.00098,0.0317628384
2613.71533,0.0315558799
2612.42969,0.0315114819
2611.14404,0.0316190198
2609.85840,0.0317639001
2608.57275,0.0318388231
2607.28711,0.0318255909
2606.00146,0.0317882970
2604.71582,0.0317993797
2603.43018,0.0318722203
2602.14453,0.0319619291
2600.85889,0.0320169628
2599.57324,0.0320086852
2598.28760,0.0319177136
2597.00195,0.0317370221
2595.71631,0.0315035768
2594.43066,0.0312946849
2593.14502,0.0311667286
2591.85938,0.0311180856
2590.57373,0.0311243143
2589.28809,0.0311757922
2588.00244,0.0312567055
2586.71680,0.0313184112
2585.43115,0.0313152410
2584.14551,0.0312577933
2582.85986,0.0312038846
2581.57422,0.0311933979
2580.28857,0.0312116444
2579.00293,0.0312145110
2577.71729,0.0311702881
2576.43164,0.0310733188
2575.14600,0.0309333894
2573.86035,0.0307693109
2572.57471,0.0306088161
2571.28906,0.0304800142
2570.00342,0.0303935762
2568.71777,0.0303341392
2567.43213,0.0302754920
2566.14648,0.0302121621
2564.86084,0.0301781371
2563.57520,0.0302177649
2562.28955,0.0303265061
2561.00391,0.0304299183
2559.71826,0.0304375533
2558.43262,0.0303234253
2557.14697,0.0301524419
2555.86133,0.0300299861
2554.57568,0.0300109275
2553.29004,0.0300374217
2552.00439,0.0299851876
2550.71875,0.0297958739
2549.43311,0.0295508038
2548.14746,0.0293775201
2546.86182,0.0293043759
2545.57617,0.0292514581
2544.29053,0.0291546974
2543.00488,0.0290473290
2541.71924,0.0290112086
2540.43359,0.0290740877
2539.14795,0.0291663222
2537.86230,0.0291744359
2536.57666,0.0290354528
2535.29102,0.0287831239
2534.00537,0.0285047069
2532.71973,0.0282722153
2531.43408,0.0281193554
2530.14844,0.0280487165
2528.86279,0.0280230921
2527.57715,0.0279670749
2526.29150,0.0278140958
2525.00586,0.0275674667
2523.72021,0.0272978488
2522.43457,0.0270738844
2521.14893,0.0269021671
2519.86328,0.0267479401
2518.57764,0.0266008154
2517.29199,0.0264893137
2516.00635,0.0264254864
2514.72070,0.0263776500
2513.43506,0.0263077319
2512.14941,0.0262049399
2510.86377,0.0260666031
2509.57813,0.0258910209
2508.29248,0.0257054884
2507.00684,0.0255628601
2505.72119,0.0254780333
2504.43555,0.0253966805
2503.14990,0.0252486393
2501.86426,0.0250245202
2500.57861,0.0247899666
2499.29297,0.0246229284
2498.00732,0.0245477874
2496.72168,0.0245352704
2495.43604,0.0245514326
2494.15039,0.0245720837
2492.86475,0.0245504733
2491.57910,0.0244258307
2490.29346,0.0241928045
2489.00781,0.0239231680
2487.72217,0.0236911494
2486.43652,0.0235103518
2485.15088,0.0233637448
2483.86523,0.0232557487
2482.57959,0.0231981017
2481.29395,0.0231618676
2480.00830,0.0230762772
2478.72266,0.0228931438
2477.43701,0.0226447098
2476.15137,0.0224200767
2474.86572,0.0222765096
2473.58008,0.0221879333
2472.29443,0.0220896546
2471.00879,0.0219536275
2469.72314,0.0218058601
2468.43750,0.0216845609
2467.15186,0.0215983652
2465.86621,0.0215276610
2464.58057,0.0214655902
2463.29492,0.0214419309
2462.00928,0.0214781836
2460.72363,0.0215227921
2459.43799,0.0214694552
2458.15234,0.0212586392
2456.86670,0.0209368952
2455.58105,0.0206138939
2454.29541,0.0203795917
2453.00977,0.0202652570
2451.72412,0.0202526990
2450.43848,0.0202949289
2449.15283,0.0203287564
2447.86719,0.0202874970
2446.58154,0.0201409459
2445.29590,0.0199402068
2444.01025,0.0197866727
2442.72461,0.0197335742
2441.43896,0.0197392609
2440.15332,0.0197346024
2438.86768,0.0197025035
2437.58203,0.0196685642
2436.29639,0.0196454879
2435.01074,0.0196141526
2433.72510,0.0195438005
2432.43945,0.0194221847
2431.15381,0.0192778986
2429.86816,0.0191679373
2428.58252,0.0191255752
2427.29688,0.0191240329
2426.01123,0.0191097483
2424.72559,0.0190635771
2423.43994,0.0190121885
2422.15430,0.0189825222
2420.86865,0.0189601313
2419.58301,0.0189035106
2418.29736,0.0187973455
2417.01172,0.0186752658
2415.72607,0.0185783990
2414.44043,0.0184973814
2413.15479,0.0183739513
2411.86914,0.0181734078
2410.58350,0.0179432500
2409.29785,0.0177841671
2408.01221,0.0177478939
2406.72656,0.0177756175
2405.44092,0.0177584663
2404.15527,0.0176611282
2402.86963,0.0175566431
2401.58398,0.0175285563
2400.29834,0.0175655372
2399.01270,0.0175735969
2397.72705,0.0174766500
2396.44141,0.0172869992
2395.15576,0.0170855038
2393.87012,0.0169524327
2392.58447,0.0169128142
2391.29883,0.0169313047
2390.01318,0.0169495270
2388.72754,0.0169389490
2387.44189,0.0169393253
2386.15625,0.0170499887
2384.87061,0.0173677634
2383.58496,0.0179242324
2382.29932,0.0186888035
2381.01367,0.0196199473
2379.72803,0.0206842292
2378.44238,0.0218211301
2377.15674,0.0229454543
2375.87109,0.0240318775
2374.58545,0.0251683425
2373.29980,0.0264682397
2372.01416,0.0279325079
2370.72852,0.0294389613
2369.44287,0.0308518466
2368.15723,0.0321210884
2366.87158,0.0333278850
2365.58594,0.0346406959
2364.30029,0.0361085199
2363.01465,0.0374729484
2361.72900,0.0383498855
2360.44336,0.0386211090
2359.15771,0.0383938886
2357.87207,0.0376000404
2356.58643,0.0360542610
2355.30078,0.0339494161
2354.01514,0.0318095759
2352.72949,0.0299410615
2351.44385,0.0283538084
2350.15820,0.0271295141
2348.87256,0.0265030172
2347.58691,0.0266771950
2346.30127,0.0276854262
2345.01563,0.0292744171
2343.72998,0.0308470372
2342.44434,0.0317536183
2341.15869,0.0317422859
2339.87305,0.0309825111
2338.58740,0.0298675187
2337.30176,0.0288555417
2336.01611,0.0282558352
2334.73047,0.0281048845
2333.44482,0.0282562766
2332.15918,0.0285313278
2330.87354,0.0287629068
2329.58789,0.0287809391
2328.30225,0.0284500606
2327.01660,0.0277529433
2325.73096,0.0268260799
2324.44531,0.0258869287
2323.15967,0.0251054484
2321.87402,0.0245110560
2320.58838,0.0240012389
2319.30273,0.0234425608
2318.01709,0.0227749236
2316.73145,0.0220459662
2315.44580,0.0213619247
2314.16016,0.0208011456
2312.87451,0.0203657821
2311.58887,0.0200017598
2310.30322,0.0196481161
2309.01758,0.0192577131
2307.73193,0.0187997799
2306.44629,0.0182705093
2305.16064,0.0177019481
2303.87500,0.0171458442
2302.58936,0.0166416876
2301.30371,0.0161987580
2300.01807,0.0158008896
2298.73242,0.0154277431
2297.44678,0.0150723075
2296.16113,0.0147415865
2294.87549,0.0144461459
2293.58984,0.0141991824
2292.30420,0.0140114082
2291.01855,0.0138685079
2289.73291,0.0137155578
2288.44727,0.0134967221
2287.16162,0.0132200876
2285.87598,0.0129620293
2284.59033,0.0127884140
2283.30469,0.0126884002
2282.01904,0.0126052490
2280.73340,0.0125234723
2279.44775,0.0124911554
2278.16211,0.0125462282
2276.87646,0.0126499664
2275.59082,0.0127203846
2274.30518,0.0127191851
2273.01953,0.0126732606
2271.73389,0.0126173468
2270.44824,0.0125535810
2269.16260,0.0124790072
2267.87695,0.0124170994
2266.59131,0.0123884119
2265.30566,0.0123677962
2264.02002,0.0123080350
2262.73438,0.0122055737
2261.44873,0.0121092610
2260.16309,0.0120509453
2258.87744,0.0119984644
2257.59180,0.0118954116
2256.30615,0.0117369033
2255.02051,0.0115909195
2253.73486,0.0115438392
2252.44922,0.0116293924
2251.16357,0.0117998039
2249.87793,0.0119690867
2248.59229,0.0120799830
2247.30664,0.0121285850
2246.02100,0.0121362256
2244.73535,0.0121187093
2243.44971,0.0120731685
2242.16406,0.0119766435
2240.87842,0.0118079167
2239.59277,0.0115933139
2238.30713,0.0114159919
2237.02148,0.0113418261
2235.73584,0.0113433143
2234.45020,0.0113274259
2233.16455,0.0112423031
2231.87891,0.0111291260
2230.59326,0.0110657103
2229.30762,0.0110808462
2228.02197,0.0111352606
2226.73633,0.0111756036
2225.45068,0.0111871054
2224.16504,0.0111851394
2222.87939,0.0111690164
2221.59375,0.0111097917
2220.30811,0.0109956926
2219.02246,0.0108689088
2217.73682,0.0107948901
2216.45117,0.0107899802
2215.16553,0.0108065400
2213.87988,0.0108063808
2212.59424,0.0108248256
2211.30859,0.0109200850
2210.02295,0.0110708876
2208.73730,0.0111786593
2207.45166,0.0111832805
2206.16602,0.0111279842
2204.88037,0.0110897953
2203.59473,0.0110894758
2202.30908,0.0110949473
2201.02344,0.0110785887
2199.73779,0.0110444408
2198.45215,0.0110159237
2197.16650,0.0110054100
2195.88086,0.0109891873
2194.59521,0.0109209344
2193.30957,0.0107854689
2192.02393,0.0106235715
2190.73828,0.0104854945
2189.45264,0.0103820050
2188.16699,0.0103049409
2186.88135,0.0102687050
2185.59570,0.0102994805
2184.31006,0.0103955260
2183.02441,0.0105231516
2181.73877,0.0106459344
2180.45313,0.0107372021
2179.16748,0.0107799759
2177.88184,0.0107738730
2176.59619,0.0107429856
2175.31055,0.0107206451
2174.02490,0.0107254209
2172.73926,0.0107616931
2171.45361,0.0108354148
2170.16797,0.0109489402
2168.88232,0.0110704098
2167.59668,0.0111262565
2166.31104,0.0110481046
2165.02539,0.0108435629
2163.73975,0.0106135979
2162.45410,0.0104883583
2161.16846,0.0105310548
2159.88281,0.0107001085
2158.59717,0.0108974166
2157.31152,0.0110539729
2156.02588,0.0111627234
2154.74023,0.0112414267
2153.45459,0.0112886885
2152.16895,0.0112912655
2150.88330,0.0112579232
2149.59766,0.0112251155
2148.31201,0.0112289945
2147.02637,0.0112848356
2145.74072,0.0113833593
2144.45508,0.0114925094
2143.16943,0.0115710068
2141.88379,0.0115986830
2140.59814,0.0115919570
2139.31250,0.0115807112
2138.02686,0.0115765641
2136.74121,0.0115764579
2135.45557,0.0115906009
2134.16992,0.0116445739
2132.88428,0.0117501998
2131.59863,0.0118819494
2130.31299,0.0119894426
2129.02734,0.0120368125
2127.74170,0.0120332204
2126.45605,0.0120195150
2125.17041,0.0120188752
2123.88477,0.0120126484
2122.59912,0.0119761918
2121.31348,0.0119297868
2120.02783,0.0119301584
2118.74219,0.0120047182
2117.45654,0.0121167665
2116.17090,0.0122086108
2114.88525,0.0122701423
2113.59961,0.0123460116
2112.31396,0.0124730403
2111.02832,0.0126316845
2109.74268,0.0127645554
2108.45703,0.0128302183
2107.17139,0.0128318984
2105.88574,0.0128097152
2104.60010,0.0128146205
2103.31445,0.0128733860
2102.02881,0.0129688298
2100.74316,0.0130657088
2099.45752,0.0131560992
2098.17188,0.0132566746
2096.88623,0.0133642955
2095.60059,0.0134513844
2094.31494,0.0135104218
2093.02930,0.0135668246
2091.74365,0.0136286551
2090.45801,0.0136630079
2089.17236,0.0136412373
2087.88672,0.0135912094
2086.60107,0.0135795111
2085.31543,0.0136537384
2084.02979,0.0138119599
2082.74414,0.0140159819
2081.45850,0.0142227979
2080.17285,0.0144006526
2078.88721,0.0145235462
2077.60156,0.0145691056
2076.31592,0.0145396069
2075.03027,0.0144852465
2073.74463,0.0144784497
2072.45898,0.0145539539
2071.17334,0.0146801593
2069.88770,0.0147982566
2068.60205,0.0148810782
2067.31641,0.0149417585
2066.03076,0.0149972467
2064.74512,0.0150480540
2063.45947,0.0150957052
2062.17383,0.0151550472
2060.88818,0.0152365426
2059.60254,0.0153371198
2058.31689,0.0154578658
2057.03125,0.0156040797
2055.74561,0.0157609191
2054.45996,0.0158931930
2053.17432,0.0159854628
2051.88867,0.0160511862
2050.60303,0.0161027350
2049.31738,0.0161428973
2048.03174,0.0161906965
2046.74609,0.0162748024
2045.46045,0.0163868852
2044.17480,0.0164727252
2042.88916,0.0164867342
2041.60352,0.0164422393
2040.31787,0.0164029337
2039.03223,0.0164307840
2037.74658,0.0165386572
2036.46094,0.0166851822
2035.17529,0.0168153159
2033.88965,0.0169093423
2032.60400,0.0169881545
2031.31836,0.0170793887
2030.03271,0.0171840303
2028.74707,0.0172701087
2027.46143,0.0172958616
2026.17578,0.0172578264
2024.89014,0.0172161870
2023.60449,0.0172477793
2022.31885,0.0173604637
2021.03320,0.0174848698
2019.74756,0.0175590683
2018.46191,0.0175925475
2017.17627,0.0176325254
2015.89063,0.0176886823
2014.60498,0.0177262444
2013.31934,0.0177264586
2012.03369,0.0177231152
2010.74805,0.0177632123
2009.46240,0.0178420432
2008.17676,0.0178975258
2006.89111,0.0178805608
2005.60547,0.0178158004
2004.31982,0.0177707355
2003.03418,0.0177783668
2001.74854,0.0178101622
2000.46289,0.0178269129
1999.17725,0.0178326294
1997.89160,0.0178681798
1996.60596,0.0179613270
1995.32031,0.0180909280
1994.03467,0.0182007514
1992.74902,0.0182455368
1991.46338,0.0182279907
1990.17773,0.0181929506
1988.89209,0.0181776993
1987.60645,0.0181789678
1986.32080,0.0181711931
1985.03516,0.0181402899
1983.74951,0.0180939771
1982.46387,0.0180506930
1981.17822,0.0180245973
1979.89258,0.0180223044
1978.60693,0.0180403553
1977.32129,0.0180650745
1976.03564,0.0180798359
1974.75000,0.0180831254
1973.46436,0.0180894434
1972.17871,0.0181029905
1970.89307,0.0181001294
1969.60742,0.0180540662
1968.32178,0.0179731995
1967.03613,0.0178996846
1965.75049,0.0178647805
1964.46484,0.0178562831
1963.17920,0.0178400185
1961.89355,0.0178029109
1960.60791,0.0177660435
1959.32227,0.0177638847
1958.03662,0.0178037193
1956.75098,0.0178426895
1955.46533,0.0178195760
1954.17969,0.0177203622
1952.89404,0.0176036246
1951.60840,0.0175446495
1950.32275,0.0175566170
1949.03711,0.0175859686
1947.75146,0.0175852962
1946.46582,0.0175679084
1945.18018,0.0175733007
1943.89453,0.0175909027
1942.60889,0.0175555106
1941.32324,0.0174395442
1940.03760,0.0173058547
1938.75195,0.0172255058
1937.46631,0.0171974692
1936.18066,0.0171811227
1934.89502,0.0171602517
1933.60938,0.0171484035
1932.32373,0.0171466228
1931.03809,0.0171250291
1929.75244,0.0170545392
1928.46680,0.0169433076
1927.18115,0.0168397781
1925.89551,0.0167961586
1924.60986,0.0168236028
1923.32422,0.0168788508
1922.03857,0.0169024803
1920.75293,0.0168706421
1919.46729,0.0167875215
1918.18164,0.0166532807
1916.89600,0.0164874587
1915.61035,0.0163539834
1914.32471,0.0162995551
1913.03906,0.0162971634
1911.75342,0.0162816569
1910.46777,0.0162165444
1909.18213,0.0161164626
1907.89648,0.0160175301
1906.61084,0.0159411244
1905.32520,0.0158835799
1904.03955,0.0158257764
1902.75391,0.0157520622
1901.46826,0.0156659614
1900.18262,0.0155865047
1898.89697,0.0155242328
1897.61133,0.0154675478
1896.32568,0.0153969536
1895.04004,0.0153120477
1893.75439,0.0152357407
1892.46875,0.0151776457
1891.18311,0.0151089458
1889.89746,0.0150005696
1888.61182,0.0148811853
1887.32617,0.0148096671
1886.04053,0.0147871692
1884.75488,0.0147629846
1883.46924,0.0147166019
1882.18359,0.0146738933
1880.89795,0.0146429958
1879.61230,0.0145815276
1878.32666,0.0144497324
1877.04102,0.0142728193
1875.75537,0.0141308494
1874.46973,0.0140909525
1873.18408,0.0141527522
1871.89844,0.0142559661
1870.61279,0.0143258972
1869.32715,0.0143040381
1868.04150,0.0141790668
1866.75586,0.0140209002
1865.47021,0.0139209479
1864.18457,0.0138947796
1862.89893,0.0138876978
1861.61328,0.0138425315
1860.32764,0.0137498081
1859.04199,0.0136428392
1857.75635,0.0135561135
1856.47070,0.0135006486
1855.18506,0.0134695405
1853.89941,0.0134517839
1852.61377,0.0134441210
1851.32813,0.0134543199
1850.04248,0.0134872431
1848.75684,0.0135326935
1847.47119,0.0135675995
1846.18555,0.0135622304
1844.89990,0.0134822764
1843.61426,0.0133223068
1842.32861,0.0131473737
1841.04297,0.0130394073
1839.75732,0.0130215092
1838.47168,0.0130667491
1837.18604,0.0131233875
1835.90039,0.0131494282
1834.61475,0.0131585794
1833.32910,0.0131974304
1832.04346,0.0132663893
1830.75781,0.0132974843
1829.47217,0.0132355653
1828.18652,0.0131263761
1826.90088,0.0130449282
1825.61523,0.0129858200
1824.32959,0.0129156262
1823.04395,0.0128528830
1821.75830,0.0128378700
1820.47266,0.0128648542
1819.18701,0.0128900530
1817.90137,0.0128827998
1816.61572,0.0128489360
1815.33008,0.0128111290
1814.04443,0.0127810026
1812.75879,0.0127599435
1811.47314,0.0127503471
1810.18750,0.0127469618
1808.90186,0.0127294473
1807.61621,0.0126825627
1806.33057,0.0126205189
1805.04492,0.0125765223
1803.75928,0.0125730308
1802.47363,0.0125974407
1801.18799,0.0126091130
1799.90234,0.0125923511
1798.61670,0.0125941904
1797.33105,0.0126713682
1796.04541,0.0128286462
1794.75977,0.0130349789
1793.47412,0.0132439192
1792.18848,0.0133892307
1790.90283,0.0134475920
1789.61719,0.0135168033
1788.33154,0.0136984857
1787.04590,0.0139908241
1785.76025,0.0143301776
1784.47461,0.0146523388
1783.18896,0.0149224671
1781.90332,0.0151491240
1780.61768,0.0153892534
1779.33203,0.0157223493
1778.04639,0.0161823127
1776.76074,0.0167312641
1775.47510,0.0173098948
1774.18945,0.0178894065
1772.90381,0.0185041055
1771.61816,0.0192517322
1770.33252,0.0201929267
1769.04688,0.0212924052
1767.76123,0.0225021578
1766.47559,0.0237691775
1765.18994,0.0250470061
1763.90430,0.0264003165
1762.61865,0.0280023534
1761.33301,0.0299023781
1760.04736,0.0318947583
1758.76172,0.0338718109
1757.47607,0.0360115133
1756.19043,0.0383981541
1754.90479,0.0408367477
1753.61914,0.0432268567
1752.33350,0.0458112918
1751.04785,0.0489413515
1749.76221,0.0526779406
1748.47656,0.0566068403
1747.19092,0.0603029355
1745.90527,0.0637692586
1744.61963,0.0671828389
1743.33398,0.0705933049
1742.04834,0.0739917904
1740.76270,0.0774778277
1739.47705,0.0810479373
1738.19141,0.0843298957
1736.90576,0.0870629176
1735.62012,0.0896335691
1734.33447,0.0927717239
1733.04883,0.0964672938
1731.76318,0.0996130556
1730.47754,0.1018230245
1729.19189,0.1035741270
1727.90625,0.1051035523
1726.62061,0.1063757613
1725.33496,0.1073744074
1724.04932,0.1081313491
1722.76367,0.1086635143
1721.47803,0.1089835390
1720.19238,0.1090969741
1718.90674,0.1089408547
1717.62109,0.1082899570
1716.33545,0.1068633273
1715.04980,0.1049075052
1713.76416,0.1030291244
1712.47852,0.1013792306
1711.19287,0.0997342691
1709.90723,0.0979127884
1708.62158,0.0958951712
1707.33594,0.0936450139
1706.05029,0.0910685956
1704.76465,0.0883695185
1703.47900,0.0860002190
1702.19336,0.0839316547
1700.90771,0.0815135762
1699.62207,0.0782960206
1698.33643,0.0748512149
1697.05078,0.0717054829
1695.76514,0.0684947073
1694.47949,0.0652827993
1693.19385,0.0626945421
1691.90820,0.0607662685
1690.62256,0.0589934513
1689.33691,0.0570130199
1688.05127,0.0549145453
1686.76563,0.0529295504
1685.47998,0.0509042442
1684.19434,0.0483844317
1682.90869,0.0456030741
1681.62305,0.0435189083
1680.33740,0.0422580801
1679.05176,0.0414757393
1677.76611,0.0409494899
1676.48047,0.0404228605
1675.19482,0.0395684987
1673.90918,0.0383900404
1672.62354,0.0373406559
1671.33789,0.0366398282
1670.05225,0.0359440707
1668.76660,0.0348802954
1667.48096,0.0337192006
1666.19531,0.0329155549
1664.90967,0.0324722640
1663.62402,0.0322244205
1662.33838,0.0321111046
1661.05273,0.0321174040
1659.76709,0.0321662948
1658.48145,0.0322283246
1657.19580,0.0324270427
1655.91016,0.0329838321
1654.62451,0.0340541154
1653.33887,0.0351929218
1652.05322,0.0350691713
1650.76758,0.0338869467
1649.48193,0.0328758173
1648.19629,0.0322081707
1646.91064,0.0317666866
1645.62500,0.0317002349
1644.33936,0.0320795514
1643.05371,0.0326460563
1641.76807,0.0331962258
1640.48242,0.0336676985
1639.19678,0.0340419933
1637.91113,0.0343072861
1636.62549,0.0344087966
1635.33984,0.0342178755
1634.05420,0.0338096544
1632.76855,0.0335256793
1631.48291,0.0335137956
1630.19727,0.0336890146
1628.91162,0.0338608362
1627.62598,0.0338284299
1626.34033,0.0335448608
1625.05469,0.0331574194
1623.76904,0.0328571424
1622.48340,0.0327394195
1621.19775,0.0327446647
1619.91211,0.0327601023
1618.62646,0.0326919369
1617.34082,0.0323728248
1616.05518,0.0316039026
1614.76953,0.0304922275
1613.48389,0.0293436199
1612.19824,0.0282784048
1610.91260,0.0273123216
1609.62695,0.0264909938
1608.34131,0.0258500278
1607.05566,0.0253191832
1605.77002,0.0247477088
1604.48438,0.0240481310
1603.19873,0.0232971795
1601.91309,0.0226586480
1600.62744,0.0221728683
1599.34180,0.0216916073
1598.05615,0.0210879538
1596.77051,0.0204329584
1595.48486,0.0198811814
1594.19922,0.0194371007
1592.91357,0.0189449601
1591.62793,0.0183276143
1590.34229,0.0176986847
1589.05664,0.0172015913
1587.77100,0.0168237928
1586.48535,0.0164311882
1585.19971,0.0159424394
1583.91406,0.0154091548
1582.62842,0.0149474107
1581.34277,0.0146385785
1580.05713,0.0144739263
1578.77148,0.0143441437
1577.48584,0.0140588395
1576.20020,0.0134944534
1574.91455,0.0128898127
1573.62891,0.0125683155
1572.34326,0.0124324420
1571.05762,0.0121986521
1569.77197,0.0117121963
1568.48633,0.0111253019
1567.20068,0.0107090771
1565.91504,0.0104723936
1564.62939,0.0103046484
1563.34375,0.0102048591
1562.05811,0.0102268560
1560.77246,0.0103325881
1559.48682,0.0103039062
1558.20117,0.0099015236
1556.91553,0.0094570238
1555.62988,0.0092483377
1554.34424,0.0091059636
1553.05859,0.0089197997
1551.77295,0.0086919609
1550.48730,0.0084627625
1549.20166,0.0083013838
1547.91602,0.0082760546
1546.63037,0.0083670104
1545.34473,0.0084586712
1544.05908,0.0084408009
1542.77344,0.0083084824
1541.48779,0.0080978945
1540.20215,0.0077422918
1538.91650,0.0073502520
1537.63086,0.0072290287
1536.34521,0.0073475149
1535.05957,0.0074701398
1533.77393,0.0073661273
1532.48828,0.0070238309
1531.20264,0.0067596999
1529.91699,0.0067859669
1528.63135,0.0069829505
1527.34570,0.0071064201
1526.06006,0.0070048370
1524.77441,0.0067644850
1523.48877,0.0065792431
1522.20313,0.0065089990
1520.91748,0.0064660907
1519.63184,0.0063704629
1518.34619,0.0062279273
1517.06055,0.0060617086
1515.77490,0.0059035034
1514.48926,0.0058052447
1513.20361,0.0058017815
1511.91797,0.0059019024
1510.63232,0.0061034206
1509.34668,0.0063695172
1508.06104,0.0065611620
1506.77539,0.0064381356
1505.48975,0.0060962802
1504.20410,0.0059250207
1502.91846,0.0059330245
1501.63281,0.0059920205
1500.34717,0.0060328348
1499.06152,0.0060363514
1497.77588,0.0060202619
1496.49023,0.0060319155
1495.20459,0.0061017149
1493.91895,0.0062079704
1492.63330,0.0063071344
1491.34766,0.0063509988
1490.06201,0.0063003055
1488.77637,0.0062068412
1487.49072,0.0062232530
1486.20508,0.0063934745
1484.91943,0.0066160900
1483.63379,0.0067935386
1482.34814,0.0068922322
1481.06250,0.0069365758
1479.77686,0.0069915787
1478.49121,0.0071171029
1477.20557,0.0073201866
1475.91992,0.0075566848
1474.63428,0.0077816104
1473.34863,0.0079824477
1472.06299,0.0081411749
1470.77734,0.0082439734
1469.49170,0.0083622597
1468.20605,0.0085952077
1466.92041,0.0089857299
1465.63477,0.0094983233
1464.34912,0.0100368466
1463.06348,0.0105432561
1461.77783,0.0110615939
1460.49219,0.0116720954
1459.20654,0.0124671264
1457.92090,0.0135251898
1456.63525,0.0146650290
1455.34961,0.0155048640
1454.06396,0.0161496941
1452.77832,0.0169087499
1451.49268,0.0178777017
1450.20703,0.0189923663
1448.92139,0.0201558322
1447.63574,0.0213241857
1446.35010,0.0224903543
1445.06445,0.0236268863
1443.77881,0.0246924926
1442.49316,0.0256486963
1441.20752,0.0264641382
1439.92188,0.0271494891
1438.63623,0.0277799573
1437.35059,0.0284415223
1436.06494,0.0291213393
1434.77930,0.0297145396
1433.49365,0.0302108545
1432.20801,0.0306945425
1430.92236,0.0312041640
1429.63672,0.0316960327
1428.35107,0.0321101025
1427.06543,0.0324573666
1425.77979,0.0328033417
1424.49414,0.0331916995
1423.20850,0.0336086489
1421.92285,0.0340325311
1420.63721,0.0345207751
1419.35156,0.0351911224
1418.06592,0.0360363983
1416.78027,0.0368457921
1415.49463,0.0375051796
1414.20898,0.0380943492
1412.92334,0.0387031697
1411.63770,0.0393548124
1410.35205,0.0400275290
1409.06641,0.0406924188
1407.78076,0.0413441546
1406.49512,0.0419909619
1405.20947,0.0425944254
1403.92383,0.0430621207
1402.63818,0.0433562137
1401.35254,0.0435256362
1400.06689,0.0435958020
1398.78125,0.0435248055
1397.49561,0.0432970934
1396.20996,0.0429850966
1394.92432,0.0426687226
1393.63867,0.0423700809
1392.35303,0.0420843549
1391.06738,0.0418036729
1389.78174,0.0415042527
1388.49609,0.0411523841
1387.21045,0.0407541990
1385.92480,0.0403808691
1384.63916,0.0400800742
1383.35352,0.0398157686
1382.06787,0.0395517983
1380.78223,0.0393240340
1379.49658,0.0391992442
1378.21094,0.0391885340
1376.92529,0.0392455123
1375.63965,0.0393288471
1374.35400,0.0394163691
1373.06836,0.0394876078
1371.78271,0.0395456702
1370.49707,0.0396401584
1369.21143,0.0398394912
1367.92578,0.0401867144
1366.64014,0.0406713001
1365.35449,0.0412478186
1364.06885,0.0418729037
1362.78320,0.0425011218
1361.49756,0.0430730432
1360.21191,0.0435745716
1358.92627,0.0440785959
1357.64063,0.0446689241
1356.35498,0.0453546457
1355.06934,0.0460701697
1353.78369,0.0467592664
1352.49805,0.0474294983
1351.21240,0.0480964854
1349.92676,0.0487240478
1348.64111,0.0492696948
1347.35547,0.0497545414
1346.06982,0.0502400771
1344.78418,0.0507527739
1343.49854,0.0512686744
1342.21289,0.0517614111
1340.92725,0.0522351265
1339.64160,0.0527059063
1338.35596,0.0531568043
1337.07031,0.0535407662
1335.78467,0.0538520552
1334.49902,0.0541479476
1333.21338,0.0544885211
1331.92773,0.0548801832
1330.64209,0.0552806258
1329.35645,0.0556427762
1328.07080,0.0559458360
1326.78516,0.0561981350
1325.49951,0.0564238727
1324.21387,0.0566403754
1322.92822,0.0568424761
1321.64258,0.0570118390
1320.35693,0.0571316071
1319.07129,0.0571969263
1317.78564,0.0572275147
1316.50000,0.0572575554
1315.21436,0.0572971031
1313.92871,0.0573225357
1312.64307,0.0573199615
1311.35742,0.0573106892
1310.07178,0.0573138446
1308.78613,0.0573062859
1307.50049,0.0572486073
1306.21484,0.0571312010
1304.92920,0.0569743328
1303.64355,0.0567896664
1302.35791,0.0565681532
1301.07227,0.0563117228
1299.78662,0.0560648069
1298.50098,0.0558865629
1297.21533,0.0557864755
1295.92969,0.0557044484
1294.64404,0.0555631891
1293.35840,0.0553319007
1292.07275,0.0550389662
1290.78711,0.0547464378
1289.50146,0.0545101240
1288.21582,0.0543450676
1286.93018,0.0542192683
1285.64453,0.0540907085
1284.35889,0.0539458096
1283.07324,0.0538044125
1281.78760,0.0537047461
1280.50195,0.0536856502
1279.21631,0.0537623130
1277.93066,0.0539143868
1276.64502,0.0541059598
1275.35938,0.0543200225
1274.07373,0.0545686446
1272.78809,0.0548838191
1271.50244,0.0553046167
1270.21680,0.0558572747
1268.93115,0.0565329753
1267.64551,0.0572904497
1266.35986,0.0580848791
1265.07422,0.0588992238
1263.78857,0.0597584136
1262.50293,0.0607177354
1261.21729,0.0618306957
1259.93164,0.0631201044
1258.64600,0.0645766482
1257.36035,0.0661778077
1256.07471,0.0679063126
1254.78906,0.0697575435
1253.50342,0.0717360154
1252.21777,0.0738399997
1250.93213,0.0760475099
1249.64648,0.0783242658
1248.36084,0.0806305259
1247.07520,0.0829103217
1245.78955,0.0850970224
1244.50391,0.0871660039
1243.21826,0.0891732574
1241.93262,0.0912060887
1240.64697,0.0932836458
1239.36133,0.0953311771
1238.07568,0.0972555578
1236.79004,0.0990297943
1235.50439,0.1006916687
1234.21875,0.1022690684
1232.93311,0.1037321389
1231.64746,0.1050185859
1230.36182,0.1060811058
1229.07617,0.1068960428
1227.79053,0.1074506491
1226.50488,0.1077517495
1225.21924,0.1078385487
1223.93359,0.1077522710
1222.64795,0.1074823141
1221.36230,0.1069626212
1220.07666,0.1061403677
1218.79102,0.1050455198
1217.50537,0.1037823930
1216.21973,0.1024455503
1214.93408,0.1010541320
1213.64844,0.0995731205
1212.36279,0.0979815871
1211.07715,0.0963064432
1209.79150,0.0945922136
1208.50586,0.0928584561
1207.22021,0.0910939425
1205.93457,0.0892866850
1204.64893,0.0874547064
1203.36328,0.0856432617
1202.07764,0.0838842690
1200.79199,0.0821601897
1199.50635,0.0804183036
1198.22070,0.0786265731
1196.93506,0.0768074095
1195.64941,0.0750116929
1194.36377,0.0732634068
1193.07813,0.0715367869
1191.79248,0.0697874278
1190.50684,0.0680020824
1189.22119,0.0662126914
1187.93555,0.0644620508
1186.64990,0.0627576187
1185.36426,0.0610595457
1184.07861,0.0593101010
1182.79297,0.0574752428
1181.50732,0.0555665158
1180.22168,0.0536246374
1178.93604,0.0516746938
1177.65039,0.0497047305
1176.36475,0.0476991981
1175.07910,0.0456894301
1173.79346,0.0437544696
1172.50781,0.0419703759
1171.22217,0.0403757840
1169.93652,0.0389859080
1168.65088,0.0378089435
1167.36523,0.0368329138
1166.07959,0.0360124409
1164.79395,0.0352921076
1163.50830,0.0346450396
1162.22266,0.0340854749
1160.93701,0.0336574614
1159.65137,0.0334135592
1158.36572,0.0333861895
1157.08008,0.0335502848
1155.79443,0.0338229761
1154.50879,0.0341241434
1153.22314,0.0344449989
1151.93750,0.0348411947
1150.65186,0.0353537723
1149.36621,0.0359494723
1148.08057,0.0365427881
1146.79492,0.0370666273
1145.50928,0.0375098623
1144.22363,0.0378917232
1142.93799,0.0382144414
1141.65234,0.0384543203
1140.36670,0.0386079177
1139.08105,0.0387258381
1137.79541,0.0388731584
1136.50977,0.0390524045
1135.22412,0.0391921587
1133.93848,0.0392302386
1132.65283,0.0391872041
1131.36719,0.0391331241
1130.08154,0.0390952267
1128.79590,0.0390387774
1127.51025,0.0389319360
1126.22461,0.0387866832
1124.93896,0.0386073291
1123.65332,0.0383375585
1122.36768,0.0379105918
1121.08203,0.0373517126
1119.79639,0.0367823653
1118.51074,0.0362999029
1117.22510,0.0358795151
1115.93945,0.0354157500
1114.65381,0.0348438583
1113.36816,0.0341999233
1112.08252,0.0335755125
1110.79688,0.0330333821
1109.51123,0.0325639620
1108.22559,0.0321026035
1106.93994,0.0315865576
1105.65430,0.0310012754
1104.36865,0.0303872731
1103.08301,0.0298129804
1101.79736,0.0293282233
1100.51172,0.0289187878
1099.22607,0.0285190549
1097.94043,0.0281035006
1096.65479,0.0277487468
1095.36914,0.0275546946
1094.08350,0.0275136307
1092.79785,0.0275224242
1091.51221,0.0275233928
1090.22656,0.0275633577
1088.94092,0.0277073309
1087.65527,0.0279630143
1086.36963,0.0283068344
1085.08398,0.0287195928
1083.79834,0.0291678179
1082.51270,0.0295872707
1081.22705,0.0299192071
1079.94141,0.0301512778
1078.65576,0.0303102657
1077.37012,0.0304140076
1076.08447,0.0304402467
1074.79883,0.0303575993
1073.51318,0.0301922616
1072.22754,0.0300327837
1070.94189,0.0299517121
1069.65625,0.0299492404
1068.37061,0.0300000291
1067.08496,0.0301212315
1065.79932,0.0303549618
1064.51367,0.0306891259
1063.22803,0.0310388654
1061.94238,0.0313167423
1060.65674,0.0315031894
1059.37109,0.0316260904
1058.08545,0.0316924118
1056.79980,0.0316705815
1055.51416,0.0315386206
1054.22852,0.0313114561
1052.94287,0.0310155675
1051.65723,0.0306718741
1050.37158,0.0303134043
1049.08594,0.0299817473
1047.80029,0.0296938308
1046.51465,0.0294348057
1045.22900,0.0291893557
1043.94336,0.0289490558
1042.65771,0.0286973026
1041.37207,0.0284263752
1040.08643,0.0281624142
1038.80078,0.0279317629
1037.51514,0.0277022030
1036.22949,0.0274057239
1034.94385,0.0270325579
1033.65820,0.0266649444
1032.37256,0.0263931639
1031.08691,0.0262270756
1029.80127,0.0261139926
1028.51563,0.0260215551
1027.22998,0.0259600468
1025.94434,0.0259238835
1024.65869,0.0258560739
1023.37305,0.0256988406
1022.08740,0.0254653227
1020.80176,0.0252401344
1019.51611,0.0251092613
1018.23047,0.0251030065
1016.94482,0.0252029896
1015.65918,0.0253770277
1014.37354,0.0255842507
1013.08789,0.0257651713
1011.80225,0.0258645620
1010.51660,0.0258772299
1009.23096,0.0258551110
1007.94531,0.0258575846
1006.65967,0.0259058066
1005.37402,0.0259795319
1004.08838,0.0260386467
1002.80273,0.0260498635
1001.51709,0.0260101743
1000.23145,0.0259492751
998.94580,0.0259048697
997.66016,0.0258949231
996.37451,0.0259061065
995.08887,0.0258967653
993.80322,0.0258203875
992.51758,0.0256734937
991.23193,0.0255183037
989.94629,0.0254319999
988.66064,0.0254354589
987.37500,0.0254858006
986.08936,0.0255284607
984.80371,0.0255275276
983.51807,0.0254600272
982.23242,0.0253195371
980.94678,0.0251364689
979.66113,0.0249735489
978.37549,0.0248801429
977.08984,0.0248490591
975.80420,0.0248311888
974.51855,0.0248007365
973.23291,0.0247882400
971.94727,0.0248284210
970.66162,0.0248884223
969.37598,0.0248839818
968.09033,0.0247750860
966.80469,0.0246137809
965.51904,0.0244839173
964.23340,0.0244224630
962.94775,0.0244107153
961.66211,0.0244115647
960.37646,0.0243885908
959.09082,0.0243145581
957.80518,0.0241980869
956.51953,0.0240964256
955.23389,0.0240725912
953.94824,0.0241340771
952.66260,0.0242306851
951.37695,0.0243124235
950.09131,0.0243729856
948.80566,0.0244431663
947.52002,0.0245567728
946.23438,0.0247140843
944.94873,0.0248604603
943.66309,0.0249101911
942.37744,0.0248198956
941.09180,0.0246353671
939.80615,0.0244400427
938.52051,0.0242670346
937.23486,0.0240828507
935.94922,0.0238537546
934.66357,0.0235901233
933.37793,0.0233247392
932.09229,0.0230795797
930.80664,0.0228567421
929.52100,0.0226303097
928.23535,0.0223326720
926.94971,0.0218957998
925.66406,0.0213419143
924.37842,0.0208118185
923.09277,0.0204542037
921.80713,0.0202704351
920.52148,0.0200989451
919.23584,0.0197776221
917.95020,0.0193155967
916.66455,0.0188753381
915.37891,0.0185840689
914.09326,0.0184123795
912.80762,0.0182614662
911.52197,0.0181224495
910.23633,0.0180859901
908.95068,0.0182182435
907.66504,0.0184829552
906.37939,0.0187844001
905.09375,0.0190468598
903.80811,0.0192576852
902.52246,0.0194519367
901.23682,0.0196434557
899.95117,0.0197674092
