3999.64014,0.0040475917
3998.35449,0.0039473488
3997.06885,0.0040684952
3995.78320,0.0043984805
3994.49756,0.0046437792
3993.21191,0.0045300326
3991.92627,0.0040671886
3990.64063,0.0035027396
3989.35498,0.0031104654
3988.06934,0.0030126539
3986.78369,0.0031490794
3985.49805,0.0033902037
3984.21240,0.0036554779
3982.92676,0.0039070179
3981.64111,0.0040810895
3980.35547,0.0041150344
3979.06982,0.0040542805
3977.78418,0.0040484020
3976.49854,0.0042029265
3975.21289,0.0044435123
3973.92725,0.0045688781
3972.64160,0.0044456827
3971.35596,0.0041473615
3970.07031,0.0038824922
3968.78467,0.0038157909
3967.49902,0.0039567007
3966.21338,0.0041792202
3964.92773,0.0043434398
3963.64209,0.0044249189
3962.35645,0.0045377486
3961.07080,0.0047923131
3959.78516,0.0051190779
3958.49951,0.0052956268
3957.21387,0.0051755006
3955.92822,0.0048239580
3954.64258,0.0044174651
3953.35693,0.0040526344
3952.07129,0.0036961506
3950.78564,0.0033200306
3949.50000,0.0030161990
3948.21436,0.0029066298
3946.92871,0.0029334980
3945.64307,0.0029066820
3944.35742,0.0027956292
3943.07178,0.0028184785
3941.78613,0.0031552855
3940.50049,0.0036453495
3939.21484,0.0039277314
3937.92920,0.0038507332
3936.64355,0.0035878718
3935.35791,0.0034321046
3934.07227,0.0035605452
3932.78662,0.0039168131
3931.50098,0.0042505520
3930.21533,0.0043266015
3928.92969,0.0041712224
3927.64404,0.0040288055
3926.35840,0.0040897131
3925.07275,0.0043294774
3923.78711,0.0045497813
3922.50146,0.0045828735
3921.21582,0.0044864560
3919.93018,0.0044639637
3918.64453,0.0046075177
3917.35889,0.0047763740
3916.07324,0.0047605927
3914.78760,0.0045950646
3913.50195,0.0045308173
3912.21631,0.0046688197
3910.93066,0.0048233033
3909.64502,0.0047868695
3908.35938,0.0046469192
3907.07373,0.0047411211
3905.78809,0.0052989814
3904.50244,0.0061768549
3903.21680,0.0068980972
3901.93115,0.0070255408
3900.64551,0.0064993817
3899.35986,0.0055863741
3898.07422,0.0046949857
3896.78857,0.0041830624
3895.50293,0.0041172816
3894.21729,0.0042919083
3892.93164,0.0044795517
3891.64600,0.0045953263
3890.36035,0.0047004027
3889.07471,0.0048634838
3887.78906,0.0050674016
3886.50342,0.0052512670
3885.21777,0.0053535933
3883.93213,0.0053625563
3882.64648,0.0053468323
3881.36084,0.0053189229
3880.07520,0.0051536802
3878.78955,0.0048411028
3877.50391,0.0046676155
3876.21826,0.0048564426
3874.93262,0.0052532060
3873.64697,0.0054994342
3872.36133,0.0054478706
3871.07568,0.0053243213
3869.79004,0.0053152018
3868.50439,0.0052532321
3867.21875,0.0049971403
3865.93311,0.0047338721
3864.64746,0.0046558152
3863.36182,0.0047158943
3862.07617,0.0047419062
3860.79053,0.0046948288
3859.50488,0.0046631941
3858.21924,0.0046762507
3856.93359,0.0046560504
3855.64795,0.0044833436
3854.36230,0.0040657250
3853.07666,0.0034540999
3851.79102,0.0029796294
3850.50537,0.0028691834
3849.21973,0.0029471284
3847.93408,0.0030565255
3846.64844,0.0032095504
3845.36279,0.0035138824
3844.07715,0.0040590623
3842.79150,0.0047473758
3841.50586,0.0052242028
3840.22021,0.0051361821
3838.93457,0.0045186016
3837.64893,0.0038912157
3836.36328,0.0038222149
3835.07764,0.0042813988
3833.79199,0.0047770804
3832.50635,0.0049374416
3831.22070,0.0046900669
3829.93506,0.0041755615
3828.64941,0.0036000870
3827.36377,0.0031277251
3826.07813,0.0028593596
3824.79248,0.0028056856
3823.50684,0.0028528457
3822.22119,0.0028471132
3820.93555,0.0027550664
3819.64990,0.0027259164
3818.36426,0.0028309587
3817.07861,0.0028631901
3815.79297,0.0026332964
3814.50732,0.0022739160
3813.22168,0.0020999166
3811.93604,0.0021748620
3810.65039,0.0023259628
3809.36475,0.0024378067
3808.07910,0.0025570481
3806.79346,0.0028149348
3805.50781,0.0032482778
3804.22217,0.0037125465
3802.93652,0.0040486888
3801.65088,0.0042231837
3800.36523,0.0043011368
3799.07959,0.0042990982
3797.79395,0.0040797307
3796.50830,0.0035562909
3795.22266,0.0029373032
3793.93701,0.0026008997
3792.65137,0.0026817915
3791.36572,0.0029958938
3790.08008,0.0033454115
3788.79443,0.0036848471
3787.50879,0.0040478264
3786.22314,0.0044188779
3784.93750,0.0047060815
3783.65186,0.0048183561
3782.36621,0.0047466173
3781.08057,0.0045444979
3779.79492,0.0042553879
3778.50928,0.0039215670
3777.22363,0.0036108929
3775.93799,0.0033628633
3774.65234,0.0031831078
3773.36670,0.0031284292
3772.08105,0.0032812965
3770.79541,0.0035872711
3769.50977,0.0038000962
3768.22412,0.0037675858
3766.93848,0.0037305353
3765.65283,0.0040396750
3764.36719,0.0047023916
3763.08154,0.0053765778
3761.79590,0.0056844004
3760.51025,0.0054513304
3759.22461,0.0048196912
3757.93896,0.0043121176
3756.65332,0.0044516977
3755.36768,0.0051786969
3754.08203,0.0060430709
3752.79639,0.0066951052
3751.51074,0.0069471234
3750.22510,0.0066849319
3748.93945,0.0060688746
3747.65381,0.0055235531
3746.36816,0.0052125701
3745.08252,0.0050234580
3743.79688,0.0049223872
3742.51123,0.0050559049
3741.22559,0.0054197712
3739.93994,0.0057762046
3738.65430,0.0059695807
3737.36865,0.0060724975
3736.08301,0.0062945541
3734.79736,0.0066727344
3733.51172,0.0068395301
3732.22607,0.0065764044
3730.94043,0.0062474655
3729.65479,0.0062107015
3728.36914,0.0064483038
3727.08350,0.0067462125
3725.79785,0.0069155614
3724.51221,0.0069213994
3723.22656,0.0068852627
3721.94092,0.0069064079
3720.65527,0.0069338139
3719.36963,0.0068600415
3718.08398,0.0066259727
3716.79834,0.0062172133
3715.51270,0.0056628943
3714.22705,0.0050765686
3712.94141,0.0046539311
3711.65576,0.0045898585
3710.37012,0.0048832744
3709.08447,0.0052136444
3707.79883,0.0053155422
3706.51318,0.0052775736
3705.22754,0.0053247926
3703.94189,0.0055822576
3702.65625,0.0059873224
3701.37061,0.0063507888
3700.08496,0.0065782438
3698.79932,0.0067655635
3697.51367,0.0069536734
3696.22803,0.0070141228
3694.94238,0.0068557290
3693.65674,0.0065789009
3692.37109,0.0063444315
3691.08545,0.0061462931
3689.79980,0.0058033029
3688.51416,0.0052773640
3687.22852,0.0048725675
3685.94287,0.0047376147
3684.65723,0.0046425755
3683.37158,0.0044168117
3682.08594,0.0041582854
3680.80029,0.0041162102
3679.51465,0.0044668405
3678.22900,0.0051471572
3676.94336,0.0058264160
3675.65771,0.0059785829
3674.37207,0.0053752675
3673.08643,0.0047286642
3671.80078,0.0047677895
3670.51514,0.0053149662
3669.22949,0.0056869965
3667.94385,0.0054305443
3666.65820,0.0048627248
3665.37256,0.0044631008
3664.08691,0.0043059997
3662.80127,0.0042595179
3661.51563,0.0042358614
3660.22998,0.0042665242
3658.94434,0.0044650622
3657.65869,0.0049364208
3656.37305,0.0056669330
3655.08740,0.0064620972
3653.80176,0.0071223918
3652.51611,0.0076854550
3651.23047,0.0082952902
3649.94482,0.0088843424
3648.65918,0.0090553723
3647.37354,0.0087032374
3646.08789,0.0085221026
3644.80225,0.0088138832
3643.51660,0.0091725569
3642.23096,0.0092279501
3640.94531,0.0090100700
3639.65967,0.0088577103
3638.37402,0.0089971740
3637.08838,0.0092766322
3635.80273,0.0094724735
3634.51709,0.0097273812
3633.23145,0.0104727121
3631.94580,0.0119509399
3630.66016,0.0139864935
3629.37451,0.0160608832
3628.08887,0.0173107311
3626.80322,0.0172015373
3625.51758,0.0164725631
3624.23193,0.0160058476
3622.94629,0.0159417428
3621.66064,0.0160468612
3620.37500,0.0160230361
3619.08936,0.0156372208
3617.80371,0.0149006872
3616.51807,0.0140835186
3615.23242,0.0133204656
3613.94678,0.0125604821
3612.66113,0.0120364670
3611.37549,0.0123748817
3610.08984,0.0139016230
3608.80420,0.0160369501
3607.51855,0.0176851228
3606.23291,0.0182265025
3604.94727,0.0180370640
3603.66162,0.0178604927
3602.37598,0.0181952976
3601.09033,0.0192938931
3599.80469,0.0210676845
3598.51904,0.0229088049
3597.23340,0.0240960661
3595.94775,0.0244394969
3594.66211,0.0242587700
3593.37646,0.0239103679
3592.09082,0.0235095844
3590.80518,0.0230250973
3589.51953,0.0223869327
3588.23389,0.0215150137
3586.94824,0.0205017198
3585.66260,0.0198355224
3584.37695,0.0199344866
3583.09131,0.0206363946
3581.80566,0.0215306003
3580.52002,0.0222733766
3579.23438,0.0226425547
3577.94873,0.0226639900
3576.66309,0.0226673745
3575.37744,0.0229286440
3574.09180,0.0232036449
3572.80615,0.0229342934
3571.52051,0.0220272858
3570.23486,0.0210699402
3568.94922,0.0206485577
3567.66357,0.0206927527
3566.37793,0.0206409562
3565.09229,0.0203793496
3563.80664,0.0204811245
3562.52100,0.0211383663
3561.23535,0.0219131950
3559.94971,0.0223646667
3558.66406,0.0223793294
3557.37842,0.0219594818
3556.09277,0.0209616981
3554.80713,0.0193578992
3553.52148,0.0176722892
3552.23584,0.0167856086
3550.95020,0.0170342159
3549.66455,0.0178325213
3548.37891,0.0185940955
3547.09326,0.0195162911
3545.80762,0.0209957100
3544.52197,0.0225235038
3543.23633,0.0228579156
3541.95068,0.0216939747
3540.66504,0.0203171726
3539.37939,0.0202092230
3538.09375,0.0213855840
3536.80811,0.0222956408
3535.52246,0.0215376168
3534.23682,0.0194945764
3532.95117,0.0177137852
3531.66553,0.0170978326
3530.37988,0.0173925254
3529.09424,0.0178575255
3527.80859,0.0178774036
3526.52295,0.0174393542
3525.23730,0.0172944311
3523.95166,0.0180802140
3522.66602,0.0192611497
3521.38037,0.0196266919
3520.09473,0.0188102145
3518.80908,0.0174610466
3517.52344,0.0160623882
3516.23779,0.0145220757
3514.95215,0.0129054664
3513.66650,0.0118531920
3512.38086,0.0119745685
3511.09521,0.0131112486
3509.80957,0.0142951570
3508.52393,0.0144282160
3507.23828,0.0132368999
3505.95264,0.0115394797
3504.66699,0.0104632461
3503.38135,0.0104688685
3502.09570,0.0109746652
3500.81006,0.0109965689
3499.52441,0.0103401178
3498.23877,0.0097186714
3496.95313,0.0097050117
3495.66748,0.0100700939
3494.38184,0.0101709915
3493.09619,0.0096266912
3491.81055,0.0085514076
3490.52490,0.0075242091
3489.23926,0.0074297432
3487.95361,0.0086220875
3486.66797,0.0100973565
3485.38232,0.0102035068
3484.09668,0.0081488770
3482.81104,0.0042101145
3481.52539,-0.0009114714
3480.23975,-0.0059021474
3478.95410,-0.0087107485
3477.66846,-0.0079108467
3476.38281,-0.0040070363
3475.09717,0.0009634304
3473.81152,0.0048172306
3472.52588,0.0062965765
3471.24023,0.0055018724
3469.95459,0.0037805114
3468.66895,0.0026793955
3467.38330,0.0026020452
3466.09766,0.0026472036
3464.81201,0.0018909911
3463.52637,0.0005848989
3462.24072,-0.0002256153
3460.95508,-0.0000858811
3459.66943,0.0002099601
3458.38379,-0.0003229368
3457.09814,-0.0015207751
3455.81250,-0.0023808216
3454.52686,-0.0026689607
3453.24121,-0.0035111781
3451.95557,-0.0061148647
3450.66992,-0.0103575606
3449.38428,-0.0146083180
3448.09863,-0.0166878570
3446.81299,-0.0153741045
3445.52734,-0.0115880165
3444.24170,-0.0076979380
3442.95605,-0.0052988613
3441.67041,-0.0043635545
3440.38477,-0.0044191107
3439.09912,-0.0054156585
3437.81348,-0.0072512901
3436.52783,-0.0094111599
3435.24219,-0.0111638699
3433.95654,-0.0118116718
3432.67090,-0.0107907243
3431.38525,-0.0083093820
3430.09961,-0.0054915296
3428.81396,-0.0041188998
3427.52832,-0.0059207883
3426.24268,-0.0111819357
3424.95703,-0.0175131951
3423.67139,-0.0207294505
3422.38574,-0.0178617798
3421.10010,-0.0094480915
3419.81445,0.0007731770
3418.52881,0.0079703731
3417.24316,0.0087410584
3415.95752,0.0023286694
3414.67188,-0.0087729571
3413.38623,-0.0200110786
3412.10059,-0.0274689570
3410.81494,-0.0303019024
3409.52930,-0.0304750111
3408.24365,-0.0305873007
3406.95801,-0.0314471535
3405.67236,-0.0316191800
3404.38672,-0.0297133196
3403.10107,-0.0267861933
3401.81543,-0.0254450645
3400.52979,-0.0269095656
3399.24414,-0.0302922465
3397.95850,-0.0341994204
3396.67285,-0.0371670984
3395.38721,-0.0373179205
3394.10156,-0.0336089134
3392.81592,-0.0277390350
3391.53027,-0.0228514746
3390.24463,-0.0211267546
3388.95898,-0.0233389474
3387.67334,-0.0292170346
3386.38770,-0.0364180170
3385.10205,-0.0403055325
3383.81641,-0.0369915068
3382.53076,-0.0274232235
3381.24512,-0.0174557567
3379.95947,-0.0128493262
3378.67383,-0.0153306769
3377.38818,-0.0230251234
3376.10254,-0.0321502388
3374.81689,-0.0384020545
3373.53125,-0.0386420190
3372.24561,-0.0334548391
3370.95996,-0.0282364339
3369.67432,-0.0295895319
3368.38867,-0.0394439176
3367.10303,-0.0526517779
3365.81738,-0.0609984100
3364.53174,-0.0598873198
3363.24609,-0.0517086349
3361.96045,-0.0430564210
3360.67480,-0.0388735719
3359.38916,-0.0400704965
3358.10352,-0.0450090617
3356.81787,-0.0508729108
3355.53223,-0.0541622825
3354.24658,-0.0522921272
3352.96094,-0.0459864177
3351.67529,-0.0384824648
3350.38965,-0.0323162191
3349.10400,-0.0285122879
3347.81836,-0.0277580265
3346.53271,-0.0303523503
3345.24707,-0.0350024402
3343.96143,-0.0394731313
3342.67578,-0.0421204716
3341.39014,-0.0419716798
3340.10449,-0.0381303281
3338.81885,-0.0309588201
3337.53320,-0.0233832952
3336.24756,-0.0197025593
3334.96191,-0.0228038765
3333.67627,-0.0319097303
3332.39063,-0.0427544676
3331.10498,-0.0506856814
3329.81934,-0.0537681989
3328.53369,-0.0533788018
3327.24805,-0.0516911671
3325.96240,-0.0492314771
3324.67676,-0.0449405387
3323.39111,-0.0386537649
3322.10547,-0.0320383012
3320.81982,-0.0271046553
3319.53418,-0.0249117557
3318.24854,-0.0261521228
3316.96289,-0.0313740969
3315.67725,-0.0388524532
3314.39160,-0.0440879390
3313.10596,-0.0435719490
3311.82031,-0.0388088077
3310.53467,-0.0347362682
3309.24902,-0.0347733982
3307.96338,-0.0390137658
3306.67773,-0.0457392931
3305.39209,-0.0525717437
3304.10645,-0.0573119745
3302.82080,-0.0596743301
3301.53516,-0.0617258884
3300.24951,-0.0651409626
3298.96387,-0.0686513186
3297.67822,-0.0695715696
3296.39258,-0.0668990240
3295.10693,-0.0620175004
3293.82129,-0.0569552071
3292.53564,-0.0533558093
3291.25000,-0.0518966131
3289.96436,-0.0521863624
3288.67871,-0.0532598794
3287.39307,-0.0543243513
3286.10742,-0.0555871986
3284.82178,-0.0579648316
3283.53613,-0.0612456314
3282.25049,-0.0628375337
3280.96484,-0.0598394535
3279.67920,-0.0530024245
3278.39355,-0.0472288504
3277.10791,-0.0471084714
3275.82227,-0.0522622466
3274.53662,-0.0579859875
3273.25098,-0.0601613671
3271.96533,-0.0589155219
3270.67969,-0.0571333095
3269.39404,-0.0560356602
3268.10840,-0.0541338511
3266.82275,-0.0510799885
3265.53711,-0.0496069267
3264.25146,-0.0514770634
3262.96582,-0.0541844480
3261.68018,-0.0546843819
3260.39453,-0.0536779873
3259.10889,-0.0535716005
3257.82324,-0.0546928793
3256.53760,-0.0563194230
3255.25195,-0.0595505424
3253.96631,-0.0655337572
3252.68066,-0.0718287155
3251.39502,-0.0738242120
3250.10938,-0.0694854110
3248.82373,-0.0615948997
3247.53809,-0.0558458604
3246.25244,-0.0564298257
3244.96680,-0.0624524094
3243.68115,-0.0691052601
3242.39551,-0.0731931627
3241.10986,-0.0759966001
3239.82422,-0.0797751173
3238.53857,-0.0828010440
3237.25293,-0.0807624310
3235.96729,-0.0727419183
3234.68164,-0.0635408238
3233.39600,-0.0597919561
3232.11035,-0.0641107410
3230.82471,-0.0732952058
3229.53906,-0.0816072002
3228.25342,-0.0853538737
3226.96777,-0.0844667181
3225.68213,-0.0808367431
3224.39648,-0.0762836114
3223.11084,-0.0716827065
3221.82520,-0.0671243742
3220.53955,-0.0628860891
3219.25391,-0.0602932833
3217.96826,-0.0607568473
3216.68262,-0.0637591705
3215.39697,-0.0667811334
3214.11133,-0.0675813258
3212.82568,-0.0657442063
3211.54004,-0.0620540194
3210.25439,-0.0575884245
3208.96875,-0.0537221320
3207.68311,-0.0518406145
3206.39746,-0.0524944924
3205.11182,-0.0551882125
3203.82617,-0.0588843264
3202.54053,-0.0621872470
3201.25488,-0.0632762313
3199.96924,-0.0609103143
3198.68359,-0.0561519079
3197.39795,-0.0523180105
3196.11230,-0.0523149371
3194.82666,-0.0562430210
3193.54102,-0.0619227774
3192.25537,-0.0668407455
3190.96973,-0.0692122802
3189.68408,-0.0684673488
3188.39844,-0.0656347275
3187.11279,-0.0626850128
3185.82715,-0.0607568920
3184.54150,-0.0592023805
3183.25586,-0.0566710010
3181.97021,-0.0526791066
3180.68457,-0.0480682291
3179.39893,-0.0444723442
3178.11328,-0.0434804782
3176.82764,-0.0454792529
3175.54199,-0.0488968752
3174.25635,-0.0512107350
3172.97070,-0.0511527546
3171.68506,-0.0497884378
3170.39941,-0.0490825176
3169.11377,-0.0496330634
3167.82813,-0.0500281416
3166.54248,-0.0483745709
3165.25684,-0.0441479459
3163.97119,-0.0387140512
3162.68555,-0.0345539488
3161.39990,-0.0337362103
3160.11426,-0.0363801718
3158.82861,-0.0404613540
3157.54297,-0.0434255749
3156.25732,-0.0441574343
3154.97168,-0.0432945788
3153.68604,-0.0419634059
3152.40039,-0.0406969339
3151.11475,-0.0392623805
3149.82910,-0.0369899832
3148.54346,-0.0335304663
3147.25781,-0.0296950918
3145.97217,-0.0270484239
3144.68652,-0.0262343995
3143.40088,-0.0262166597
3142.11523,-0.0257031340
3140.82959,-0.0246967990
3139.54395,-0.0241347067
3138.25830,-0.0245903581
3136.97266,-0.0257439241
3135.68701,-0.0267508514
3134.40137,-0.0268042497
3133.11572,-0.0257211849
3131.83008,-0.0241647251
3130.54443,-0.0229419917
3129.25879,-0.0221322794
3127.97314,-0.0212871917
3126.68750,-0.0202765912
3125.40186,-0.0193690136
3124.11621,-0.0185533538
3122.83057,-0.0173742864
3121.54492,-0.0156148998
3120.25928,-0.0137105258
3118.97363,-0.0123741850
3117.68799,-0.0119870203
3116.40234,-0.0123210456
3115.11670,-0.0126762381
3113.83105,-0.0123677952
3112.54541,-0.0112700723
3111.25977,-0.0098438011
3109.97412,-0.0086654816
3108.68848,-0.0080444273
3107.40283,-0.0080112908
3106.11719,-0.0083601195
3104.83154,-0.0086378232
3103.54590,-0.0083838860
3102.26025,-0.0075489376
3100.97461,-0.0065289736
3099.68896,-0.0056751696
3098.40332,-0.0049266284
3097.11768,-0.0040369923
3095.83203,-0.0030172211
3094.54639,-0.0021765686
3093.26074,-0.0017370937
3091.97510,-0.0015231484
3090.68945,-0.0010699976
3089.40381,-0.0000315797
3088.11816,0.0014553115
3086.83252,0.0028037056
3085.54688,0.0035040444
3084.26123,0.0036848471
3082.97559,0.0040045604
3081.68994,0.0049018357
3080.40430,0.0061023450
3079.11865,0.0069974191
3077.83301,0.0073516211
3076.54736,0.0074408823
3075.26172,0.0076120030
3073.97607,0.0079493327
3072.69043,0.0083855363
3071.40479,0.0089145424
3070.11914,0.0095797963
3068.83350,0.0103290901
3067.54785,0.0110260658
3066.26221,0.0116436705
3064.97656,0.0123475557
3063.69092,0.0132585699
3062.40527,0.0141800037
3061.11963,0.0147476122
3059.83398,0.0148753189
3058.54834,0.0148860067
3057.26270,0.0151277622
3055.97705,0.0156112714
3054.69141,0.0161413662
3053.40576,0.0166692585
3052.12012,0.0173218567
3050.83447,0.0181425828
3049.54883,0.0190002341
3048.26318,0.0197491217
3046.97754,0.0203552842
3045.69189,0.0208692867
3044.40625,0.0213685073
3043.12061,0.0219197571
3041.83496,0.0225176178
3040.54932,0.0230855048
3039.26367,0.0235680398
3037.97803,0.0239802841
3036.69238,0.0243410319
3035.40674,0.0246506277
3034.12109,0.0249712169
3032.83545,0.0254291482
3031.54980,0.0260834247
3030.26416,0.0268465932
3028.97852,0.0275584776
3027.69287,0.0281110425
3026.40723,0.0285258815
3025.12158,0.0289374627
3023.83594,0.0294441693
3022.55029,0.0299646910
3021.26465,0.0303162951
3019.97900,0.0304491054
3018.69336,0.0304885358
3017.40771,0.0305414926
3016.12207,0.0306025930
3014.83643,0.0306907054
3013.55078,0.0309421495
3012.26514,0.0314831212
3010.97949,0.0322473943
3009.69385,0.0329921022
3008.40820,0.0335105769
3007.12256,0.0338103808
3005.83691,0.0340698510
3004.55127,0.0344399214
3003.26563,0.0349372700
3001.97998,0.0355186090
3000.69434,0.0361638814
2999.40869,0.0368327722
2998.12305,0.0374043584
2996.83740,0.0377464220
2995.55176,0.0378380306
2994.26611,0.0377956368
2992.98047,0.0377777666
2991.69482,0.0378732234
2990.40918,0.0380734950
2989.12354,0.0383228585
2987.83789,0.0385607332
2986.55225,0.0387350582
2985.26660,0.0388425030
2983.98096,0.0389780030
2982.69531,0.0392672457
2981.40967,0.0397097878
2980.12402,0.0401446037
2978.83838,0.0404243656
2977.55273,0.0405893810
2976.26709,0.0408190899
2974.98145,0.0412334166
2973.69580,0.0417713821
2972.41016,0.0422541127
2971.12451,0.0425313227
2969.83887,0.0425622426
2968.55322,0.0423896573
2967.26758,0.0420977883
2965.98193,0.0418070890
2964.69629,0.0416561998
2963.41064,0.0417260639
2962.12500,0.0419742577
2960.83936,0.0422584750
2959.55371,0.0424365811
2958.26807,0.0424769148
2956.98242,0.0424948707
2955.69678,0.0426523872
2954.41113,0.0429890677
2953.12549,0.0433734022
2951.83984,0.0436418243
2950.55420,0.0437582210
2949.26855,0.0438134782
2947.98291,0.0439019389
2946.69727,0.0440312624
2945.41162,0.0441355854
2944.12598,0.0441462994
2942.84033,0.0440388881
2941.55469,0.0438179448
2940.26904,0.0434968174
2938.98340,0.0431232415
2937.69775,0.0427918285
2936.41211,0.0425642990
2935.12646,0.0423796400
2933.84082,0.0421048626
2932.55518,0.0416850932
2931.26953,0.0411952175
2929.98389,0.0407475494
2928.69824,0.0404102169
2927.41260,0.0402223244
2926.12695,0.0402157344
2924.84131,0.0403785668
2923.55566,0.0406280942
2922.27002,0.0408555456
2920.98438,0.0410108864
2919.69873,0.0411470942
2918.41309,0.0413750745
2917.12744,0.0417561047
2915.84180,0.0422435552
2914.55615,0.0427436680
2913.27051,0.0432124734
2911.98486,0.0436498970
2910.69922,0.0440308675
2909.41357,0.0443135686
2908.12793,0.0445094630
2906.84229,0.0446804874
2905.55664,0.0448507145
2904.27100,0.0449719392
2902.98535,0.0449833386
2901.69971,0.0448755696
2900.41406,0.0446974151
2899.12842,0.0445312336
2897.84277,0.0444526561
2896.55713,0.0444794670
2895.27148,0.0445526280
2893.98584,0.0445925035
2892.70020,0.0445738509
2891.41455,0.0445385166
2890.12891,0.0445461757
2888.84326,0.0446128100
2887.55762,0.0446813218
2886.27197,0.0446568765
2884.98633,0.0444997698
2883.70068,0.0442988612
2882.41504,0.0442206748
2881.12939,0.0443538465
2879.84375,0.0446064137
2878.55811,0.0447832420
2877.27246,0.0447631553
2875.98682,0.0445863083
2874.70117,0.0443780199
2873.41553,0.0442238227
2872.12988,0.0441276506
2870.84424,0.0440507457
2869.55859,0.0439644903
2868.27295,0.0438811481
2866.98730,0.0438380465
2865.70166,0.0438330136
2864.41602,0.0437865071
2863.13037,0.0436168090
2861.84473,0.0433483459
2860.55908,0.0430856794
2859.27344,0.0428645648
2857.98779,0.0425983630
2856.70215,0.0422043316
2855.41650,0.0417310558
2854.13086,0.0413202979
2852.84521,0.0410836935
2851.55957,0.0410575159
2850.27393,0.0412355475
2848.98828,0.0415905565
2847.70264,0.0420692712
2846.41699,0.0426012203
2845.13135,0.0431125499
2843.84570,0.0435367674
2842.56006,0.0438375920
2841.27441,0.0440268517
2839.98877,0.0441435240
2838.70313,0.0442168601
2837.41748,0.0442543812
2836.13184,0.0442476422
2834.84619,0.0441709757
2833.56055,0.0440058261
2832.27490,0.0437936932
2830.98926,0.0436371900
2829.70361,0.0436156690
2828.41797,0.0437091216
2827.13232,0.0438250750
2825.84668,0.0438900813
2824.56104,0.0439042598
2823.27539,0.0439119898
2821.98975,0.0439311825
2820.70410,0.0439170934
2819.41846,0.0438066944
2818.13281,0.0435906798
2816.84717,0.0433207154
2815.56152,0.0430548638
2814.27588,0.0428235978
2812.99023,0.0426399373
2811.70459,0.0425003767
2810.41895,0.0423701927
2809.13330,0.0422080941
2807.84766,0.0420183949
2806.56201,0.0418507308
2805.27637,0.0417398065
2803.99072,0.0416622981
2802.70508,0.0415650941
2801.41943,0.0414243639
2800.13379,0.0412718691
2798.84814,0.0411687233
2797.56250,0.0411450714
2796.27686,0.0411585607
2794.99121,0.0411302447
2793.70557,0.0410372578
2792.41992,0.0409464203
2791.13428,0.0409228951
2789.84863,0.0409313142
2788.56299,0.0408801474
2787.27734,0.0407531187
2785.99170,0.0406248532
2784.70605,0.0405397862
2783.42041,0.0404442810
2782.13477,0.0402707718
2780.84912,0.0400377475
2779.56348,0.0398341008
2778.27783,0.0397410728
2776.99219,0.0397843942
2775.70654,0.0399213843
2774.42090,0.0400519110
2773.13525,0.0400860645
2771.84961,0.0400271900
2770.56396,0.0399634391
2769.27832,0.0399609730
2767.99268,0.0399898663
2766.70703,0.0399695113
2765.42139,0.0398605689
2764.13574,0.0396958925
2762.85010,0.0395361148
2761.56445,0.0394158885
2760.27881,0.0393324234
2758.99316,0.0392768793
2757.70752,0.0392622277
2756.42188,0.0393045060
2755.13623,0.0393831804
2753.85059,0.0394575298
2752.56494,0.0395242684
2751.27930,0.0396127366
2749.99365,0.0397030637
2748.70801,0.0397064723
2747.42236,0.0395752192
2746.13672,0.0393948555
2744.85107,0.0393105708
2743.56543,0.0393826105
2742.27979,0.0395448804
2740.99414,0.0396871269
2739.70850,0.0397441387
2738.42285,0.0397157744
2737.13721,0.0396369509
2735.85156,0.0395456702
2734.56592,0.0394786485
2733.28027,0.0394770317
2731.99463,0.0395622626
2730.70898,0.0396941900
2729.42334,0.0397849865
2728.13770,0.0397708304
2726.85205,0.0396535993
2725.56641,0.0394785069
2724.28076,0.0393035449
2722.99512,0.0391906574
2721.70947,0.0391853899
2720.42383,0.0392827168
2719.13818,0.0394321904
2717.85254,0.0395762138
2716.56689,0.0396714136
2715.28125,0.0396880619
2713.99561,0.0396243073
2712.70996,0.0395289212
2711.42432,0.0394775458
2710.13867,0.0394958854
2708.85303,0.0395220816
2707.56738,0.0394754447
2706.28174,0.0393647030
2704.99609,0.0392876714
2703.71045,0.0393168628
2702.42480,0.0394224413
2701.13916,0.0395191349
2699.85352,0.0395498723
2698.56787,0.0395103469
2697.28223,0.0394365862
2695.99658,0.0393913426
2694.71094,0.0394234285
2693.42529,0.0395272709
2692.13965,0.0396609753
2690.85400,0.0398009345
2689.56836,0.0399432592
2688.28271,0.0400681794
2686.99707,0.0401474722
2685.71143,0.0401830226
2684.42578,0.0402018204
2683.14014,0.0402212739
2681.85449,0.0402465202
2680.56885,0.0402865335
2679.28320,0.0403548777
2677.99756,0.0404633433
2676.71191,0.0406242572
2675.42627,0.0408339910
2674.14063,0.0410500355
2672.85498,0.0412094221
2671.56934,0.0412789583
2670.28369,0.0412729532
2668.99805,0.0412307717
2667.71240,0.0411966704
2666.42676,0.0412080549
2665.14111,0.0412809253
2663.85547,0.0414085314
2662.56982,0.0415771119
2661.28418,0.0417705216
2659.99854,0.0419638790
2658.71289,0.0421371497
2657.42725,0.0422915183
2656.14160,0.0424252152
2654.85596,0.0425127968
2653.57031,0.0425444581
2652.28467,0.0425653271
2650.99902,0.0426321477
2649.71338,0.0427355021
2648.42773,0.0428149961
2647.14209,0.0428419076
2645.85645,0.0428519398
2644.57080,0.0428960547
2643.28516,0.0429898389
2641.99951,0.0431132615
2640.71387,0.0432370380
2639.42822,0.0433400832
2638.14258,0.0434090458
2636.85693,0.0434329063
2635.57129,0.0434103049
2634.28564,0.0433593020
2633.00000,0.0433081612
2631.71436,0.0432852209
2630.42871,0.0433296971
2629.14307,0.0434828587
2627.85742,0.0437289886
2626.57178,0.0439666137
2625.28613,0.0440871008
2624.00049,0.0440819487
2622.71484,0.0440405756
2621.42920,0.0440540127
2620.14355,0.0441407748
2618.85791,0.0442432277
2617.57227,0.0442750975
2616.28662,0.0441896878
2615.00098,0.0440287180
2613.71533,0.0438966416
2612.42969,0.0438785404
2611.14404,0.0439744033
2609.85840,0.0441006273
2608.57275,0.0441515185
2607.28711,0.0440883636
2606.00146,0.0439789854
2604.71582,0.0439248830
2603.43018,0.0439443290
2602.14453,0.0439540669
2600.85889,0.0438706651
2599.57324,0.0436948352
2598.28760,0.0434928983
2597.00195,0.0433364473
2595.71631,0.0432645157
2594.43066,0.0432658046
2593.14502,0.0432754457
2591.85938,0.0432290025
2590.57373,0.0431378521
2589.28809,0.0430791304
2588.00244,0.0430883393
2586.71680,0.0431033708
2585.43115,0.0430555195
2584.14551,0.0429742895
2582.85986,0.0429436564
2581.57422,0.0429724380
2580.28857,0.0429765508
2579.00293,0.0428962223
2577.71729,0.0427711196
2576.43164,0.0426830910
2575.14600,0.0426573306
2573.86035,0.0426499918
2572.57471,0.0426151790
2571.28906,0.0425566249
2570.00342,0.0425050557
2568.71777,0.0424607545
2567.43213,0.0423902571
2566.14648,0.0422810465
2564.86084,0.0421726927
2563.57520,0.0421174988
2562.28955,0.0421267673
2561.00391,0.0421622507
2559.71826,0.0421635062
2558.43262,0.0420946255
2557.14697,0.0419828668
2555.86133,0.0418943390
2554.57568,0.0418513529
2553.29004,0.0417981967
2552.00439,0.0416799001
2550.71875,0.0415200889
2549.43311,0.0413855277
2548.14746,0.0412949286
2546.86182,0.0412013084
2545.57617,0.0410599336
2544.29053,0.0408894457
2543.00488,0.0407593511
2541.71924,0.0407200828
2540.43359,0.0407402441
2539.14795,0.0407219604
2537.86230,0.0405869037
2536.57666,0.0403473489
2535.29102,0.0400900319
2534.00537,0.0398965515
2532.71973,0.0397793129
2531.43408,0.0396862738
2530.14844,0.0395574383
2528.86279,0.0393674783
2527.57715,0.0391155891
2526.29150,0.0388053060
2525.00586,0.0384648144
2523.72021,0.0381646939
2522.43457,0.0379653648
2521.14893,0.0378470160
2519.86328,0.0377334319
2518.57764,0.0375886336
2517.29199,0.0374494195
2516.00635,0.0373510346
2514.72070,0.0372662395
2513.43506,0.0371408015
2512.14941,0.0369640142
2510.86377,0.0367741138
2509.57813,0.0366086811
2508.29248,0.0364749022
2507.00684,0.0363575481
2505.72119,0.0362332426
2504.43555,0.0360758901
2503.14990,0.0358680151
2501.86426,0.0356145278
2500.57861,0.0353433751
2499.29297,0.0350869633
2498.00732,0.0348609425
2496.72168,0.0346619487
2495.43604,0.0344878435
2494.15039,0.0343588926
2492.86475,0.0342971757
2491.57910,0.0342771411
2490.29346,0.0342170931
2489.00781,0.0340470895
2487.72217,0.0337819271
2486.43652,0.0335088968
2485.15088,0.0333048776
2483.86523,0.0331847146
2482.57959,0.0331197828
2481.29395,0.0330693871
2480.00830,0.0329822972
2478.72266,0.0328094810
2477.43701,0.0325468034
2476.15137,0.0322487056
2474.86572,0.0319768935
2473.58008,0.0317486376
2472.29443,0.0315507315
2471.00879,0.0313752815
2469.72314,0.0312166512
2468.43750,0.0310540758
2467.15186,0.0308694895
2465.86621,0.0306767076
2464.58057,0.0305125546
2463.29492,0.0303963237
2462.00928,0.0303064939
2460.72363,0.0301956758
2459.43799,0.0300312601
2458.15234,0.0298263691
2456.86670,0.0296252389
2455.58105,0.0294551644
2454.29541,0.0293000862
2453.00977,0.0291304775
2451.72412,0.0289523788
2450.43848,0.0288128313
2449.15283,0.0287512615
2447.86719,0.0287474431
2446.58154,0.0287312381
2445.29590,0.0286493804
2444.01025,0.0285062827
2442.72461,0.0283362605
2441.43896,0.0281603709
2440.15332,0.0279944837
2438.86768,0.0278738793
2437.58203,0.0278275628
2436.29639,0.0278331917
2435.01074,0.0278289989
2433.72510,0.0277701598
2432.43945,0.0276515763
2431.15381,0.0274875145
2429.86816,0.0273010191
2428.58252,0.0271313339
2427.29688,0.0270060319
2426.01123,0.0268968232
2424.72559,0.0267396271
2423.43994,0.0265193600
2422.15430,0.0263037458
2420.86865,0.0261742007
2419.58301,0.0261457451
2418.29736,0.0261694975
2417.01172,0.0261884704
2415.72607,0.0261733476
2414.44043,0.0261236429
2413.15479,0.0260464009
2411.86914,0.0259312205
2410.58350,0.0257552285
2409.29785,0.0255265404
2408.01221,0.0252973661
2406.72656,0.0251135938
2405.44092,0.0249712449
2404.15527,0.0248420145
2402.86963,0.0247168802
2401.58398,0.0246036425
2400.29834,0.0245071687
2399.01270,0.0244284328
2397.72705,0.0243617874
2396.44141,0.0242836252
2395.15576,0.0241672695
2393.87012,0.0240234528
2392.58447,0.0239056107
2391.29883,0.0238585956
2390.01318,0.0238795970
2388.72754,0.0239558015
2387.44189,0.0241449140
2386.15625,0.0245884676
2384.87061,0.0254172347
2383.58496,0.0266529713
2382.29932,0.0282258056
2381.01367,0.0300697945
2379.72803,0.0321590230
2378.44238,0.0344587825
2377.15674,0.0369109996
2375.87109,0.0394999683
2374.58545,0.0422735699
2373.29980,0.0452556349
2372.01416,0.0484010987
2370.72852,0.0516912825
2369.44287,0.0551898740
2368.15723,0.0589052439
2366.87158,0.0626329407
2365.58594,0.0660284013
2364.30029,0.0688416362
2363.01465,0.0710149035
2361.72900,0.0725264922
2360.44336,0.0732234791
2359.15771,0.0728849471
2357.87207,0.0714135244
2356.58643,0.0689344928
2355.30078,0.0657268092
2354.01514,0.0620066226
2352.72949,0.0578925833
2351.44385,0.0537439696
2350.15820,0.0502664931
2348.87256,0.0481360219
2347.58691,0.0477471612
2346.30127,0.0491885990
2345.01563,0.0520515330
2343.72998,0.0551788211
2342.44434,0.0572028905
2341.15869,0.0576494038
2339.87305,0.0569692180
2338.58740,0.0557853058
2337.30176,0.0545132048
2336.01611,0.0533633195
2334.73047,0.0524511598
2333.44482,0.0518418811
2332.15918,0.0514867045
2330.87354,0.0512013845
2329.58789,0.0507779680
2328.30225,0.0500914603
2327.01660,0.0490956381
2325.73096,0.0478300638
2324.44531,0.0464678742
2323.15967,0.0452335700
2321.87402,0.0441716947
2320.58838,0.0430519469
2319.30273,0.0416115560
2318.01709,0.0398704186
2316.73145,0.0381297879
2315.44580,0.0366869494
2314.16016,0.0356034823
2312.87451,0.0347227044
2311.58887,0.0338555165
2310.30322,0.0329104401
2309.01758,0.0318580717
2307.73193,0.0306670107
2306.44629,0.0293528438
2305.16064,0.0280510075
2303.87500,0.0269497577
2302.58936,0.0261318069
2301.30371,0.0255109742
2300.01807,0.0249319561
2298.73242,0.0243056621
2297.44678,0.0236416440
2296.16113,0.0229822695
2294.87549,0.0223470069
2293.58984,0.0217472054
2292.30420,0.0212159622
2291.01855,0.0207827091
2289.73291,0.0204177387
2288.44727,0.0200375430
2287.16162,0.0195834991
2285.87598,0.0190818347
2284.59033,0.0186185464
2283.30469,0.0182730462
2282.01904,0.0180810764
2280.73340,0.0180384945
2279.44775,0.0181141105
2278.16211,0.0182569548
2276.87646,0.0184036568
2275.59082,0.0184924100
2274.30518,0.0184897911
2273.01953,0.0184167828
2271.73389,0.0183395222
2270.44824,0.0183160845
2269.16260,0.0183470007
2267.87695,0.0183795691
2266.59131,0.0183566976
2265.30566,0.0182604659
2264.02002,0.0181190483
2262.73438,0.0179835595
2261.44873,0.0178887863
2260.16309,0.0178204123
2258.87744,0.0177224949
2257.59180,0.0175479632
2256.30615,0.0173070133
2255.02051,0.0170668699
2253.73486,0.0169003010
2252.44922,0.0168343950
2251.16357,0.0168391857
2249.87793,0.0168647226
2248.59229,0.0168882161
2247.30664,0.0169207267
2246.02100,0.0169725139
2244.73535,0.0170225836
2243.44971,0.0170263257
2242.16406,0.0169453025
2240.87842,0.0167730991
2239.59277,0.0165483113
2238.30713,0.0163421314
2237.02148,0.0162083488
2235.73584,0.0161370132
2234.45020,0.0160714388
2233.16455,0.0159756597
2231.87891,0.0158705581
2230.59326,0.0158023406
2229.30762,0.0157954674
2228.02197,0.0158360582
2226.73633,0.0158872586
2225.45068,0.0159173869
2224.16504,0.0159227047
2222.87939,0.0159229189
2221.59375,0.0159250684
2220.30811,0.0159060024
2219.02246,0.0158424210
2217.73682,0.0157476868
2216.45117,0.0156576950
2215.16553,0.0155894281
2213.87988,0.0155364396
2212.59424,0.0155035472
2211.30859,0.0155174723
2210.02295,0.0155909052
2208.73730,0.0156923961
2207.45166,0.0157659650
2206.16602,0.0157763287
2204.88037,0.0157279838
2203.59473,0.0156478472
2202.30908,0.0155611234
2201.02344,0.0154872648
2199.73779,0.0154464636
2198.45215,0.0154548325
2197.16650,0.0154976724
2195.88086,0.0155217107
2194.59521,0.0154760787
2193.30957,0.0153683899
2192.02393,0.0152567048
2190.73828,0.0151779139
2189.45264,0.0151089998
2188.16699,0.0150180962
2186.88135,0.0149292992
2185.59570,0.0149084022
2184.31006,0.0149929076
2183.02441,0.0151593639
2181.73877,0.0153527819
2180.45313,0.0155156208
2179.16748,0.0155952256
2177.88184,0.0155565618
2176.59619,0.0154177658
2175.31055,0.0152575634
2174.02490,0.0151620721
2172.73926,0.0151598202
2171.45361,0.0152136739
2170.16797,0.0152666001
2168.88232,0.0152797624
2167.59668,0.0152387694
2166.31104,0.0151543245
2165.02539,0.0150694409
2163.73975,0.0150418645
2162.45410,0.0150997257
2161.16846,0.0152177233
2159.88281,0.0153528629
2158.59717,0.0154972160
2157.31152,0.0156751145
2156.02588,0.0158813521
2154.74023,0.0160457063
2153.45459,0.0160907283
2152.16895,0.0160149261
2150.88330,0.0158924423
2149.59766,0.0157930255
2148.31201,0.0157444682
2147.02637,0.0157702360
2145.74072,0.0158970077
2144.45508,0.0160947815
2143.16943,0.0162601322
2141.88379,0.0163126439
2140.59814,0.0162830018
2139.31250,0.0162646454
2138.02686,0.0163009018
2136.74121,0.0163586326
2135.45557,0.0164004322
2134.16992,0.0164374784
2132.88428,0.0165046155
2131.59863,0.0166124254
2130.31299,0.0167384725
2129.02734,0.0168516971
2127.74170,0.0169324912
2126.45605,0.0169699285
2125.17041,0.0169545598
2123.88477,0.0168918762
2122.59912,0.0168242231
2121.31348,0.0168193784
2120.02783,0.0169135146
2118.74219,0.0170668419
2117.45654,0.0171945076
2116.17090,0.0172488037
2114.88525,0.0172637254
2113.59961,0.0173140988
2112.31396,0.0174393281
2111.02832,0.0176129807
2109.74268,0.0177763999
2108.45703,0.0178858731
2107.17139,0.0179366432
2105.88574,0.0179628916
2104.60010,0.0180166643
2103.31445,0.0181268752
2102.02881,0.0182698630
2100.74316,0.0183948521
2099.45752,0.0184826590
2098.17188,0.0185588654
2096.88623,0.0186494309
2095.60059,0.0187540464
2094.31494,0.0188705549
2093.02930,0.0190085378
2091.74365,0.0191576313
2090.45801,0.0192727875
2089.17236,0.0193151087
2087.88672,0.0192945674
2086.60107,0.0192575492
2085.31543,0.0192471053
2084.02979,0.0192864519
2082.74414,0.0193814207
2081.45850,0.0195291527
2080.17285,0.0197183769
2078.88721,0.0199158955
2077.60156,0.0200578179
2076.31592,0.0200934410
2075.03027,0.0200569779
2073.74463,0.0200600140
2072.45898,0.0201823767
2071.17334,0.0203904435
2069.88770,0.0205887575
2068.60205,0.0207296517
2067.31641,0.0208372381
2066.03076,0.0209460743
2064.74512,0.0210558362
2063.45947,0.0211486109
2062.17383,0.0212223232
2060.88818,0.0212964546
2059.60254,0.0213956442
2058.31689,0.0215298645
2057.03125,0.0216778386
2055.74561,0.0217942614
2054.45996,0.0218507163
2053.17432,0.0218749437
2051.88867,0.0219284128
2050.60303,0.0220389403
2049.31738,0.0221732520
2048.03174,0.0222902987
2046.74609,0.0223965552
2045.46045,0.0225249771
2044.17480,0.0226721745
2042.88916,0.0227927379
2041.60352,0.0228615440
2040.31787,0.0229109600
2039.03223,0.0229914971
2037.74658,0.0231115762
2036.46094,0.0232336279
2035.17529,0.0233224705
2033.88965,0.0233849697
2032.60400,0.0234663039
2031.31836,0.0236059744
2030.03271,0.0237929113
2028.74707,0.0239620097
2027.46143,0.0240440536
2026.17578,0.0240272842
2024.89014,0.0239663310
2023.60449,0.0239304174
2022.31885,0.0239424240
2021.03320,0.0239755232
2019.74756,0.0240021404
2018.46191,0.0240348596
2017.17627,0.0241100769
2015.89063,0.0242347363
2014.60498,0.0243657567
2013.31934,0.0244514924
2012.03369,0.0244811494
2010.74805,0.0244822185
2009.46240,0.0244802460
2008.17676,0.0244735386
2006.89111,0.0244467519
2005.60547,0.0244050771
2004.31982,0.0243755579
2003.03418,0.0243808981
2001.74854,0.0244201347
2000.46289,0.0244815350
1999.17725,0.0245586634
1997.89160,0.0246509816
1996.60596,0.0247588065
1995.32031,0.0248842016
1994.03467,0.0250239447
1992.74902,0.0251507871
1991.46338,0.0252188705
1990.17773,0.0252111629
1988.89209,0.0251663942
1987.60645,0.0251342487
1986.32080,0.0251223966
1985.03516,0.0251066815
1983.74951,0.0250748973
1982.46387,0.0250402335
1981.17822,0.0250170901
1979.89258,0.0250083972
1978.60693,0.0250127297
1977.32129,0.0250238348
1976.03564,0.0250215586
1974.75000,0.0249952339
1973.46436,0.0249702577
1972.17871,0.0249821302
1970.89307,0.0250259470
1969.60742,0.0250589624
1968.32178,0.0250522699
1967.03613,0.0250135250
1965.75049,0.0249602776
1964.46484,0.0248979889
1963.17920,0.0248301476
1961.89355,0.0247720722
1960.60791,0.0247413218
1959.32227,0.0247358140
1958.03662,0.0247218125
1956.75098,0.0246576685
1955.46533,0.0245405864
1954.17969,0.0244225189
1952.89404,0.0243604723
1951.60840,0.0243581999
1950.32275,0.0243656468
1949.03711,0.0243303012
1947.75146,0.0242469460
1946.46582,0.0241648350
1945.18018,0.0241401494
1943.89453,0.0241685007
1942.60889,0.0241773687
1941.32324,0.0241134427
1940.03760,0.0240101572
1938.75195,0.0239270274
1937.46631,0.0238701906
1936.18066,0.0238141585
1934.89502,0.0237553716
1933.60938,0.0237112697
1932.32373,0.0236871578
1931.03809,0.0236688722
1929.75244,0.0236395393
1928.46680,0.0235863775
1927.18115,0.0235067438
1925.89551,0.0234154873
1924.60986,0.0233322773
1923.32422,0.0232574940
1922.03857,0.0231760647
1920.75293,0.0230828561
1919.46729,0.0229804143
1918.18164,0.0228599906
1916.89600,0.0227219500
1915.61035,0.0226013493
1914.32471,0.0225327741
1913.03906,0.0225018021
1911.75342,0.0224644281
1910.46777,0.0223966092
1909.18213,0.0223116335
1907.89648,0.0222326946
1906.61084,0.0221696813
1905.32520,0.0221187137
1904.03955,0.0220647343
1902.75391,0.0219843425
1901.46826,0.0218654703
1900.18262,0.0217259508
1898.89697,0.0215988811
1897.61133,0.0214987751
1896.32568,0.0214109290
1895.04004,0.0213164911
1893.75439,0.0212241709
1892.46875,0.0211594272
1891.18311,0.0211232267
1889.89746,0.0210817046
1888.61182,0.0210032891
1887.32617,0.0208937041
1886.04053,0.0207792614
1884.75488,0.0206784196
1883.46924,0.0206020586
1882.18359,0.0205438919
1880.89795,0.0204646252
1879.61230,0.0203216206
1878.32666,0.0201267656
1877.04102,0.0199536216
1875.75537,0.0198734570
1874.46973,0.0198930781
1873.18408,0.0199572816
1871.89844,0.0200031418
1870.61279,0.0199974757
1869.32715,0.0199297704
1868.04150,0.0198018439
1866.75586,0.0196457040
1865.47021,0.0195132308
1864.18457,0.0194247570
1862.89893,0.0193557069
1861.61328,0.0192653164
1860.32764,0.0191287119
1859.04199,0.0189537220
1857.75635,0.0187818594
1856.47070,0.0186638087
1855.18506,0.0186163858
1853.89941,0.0186069552
1852.61377,0.0185914747
1851.32813,0.0185561907
1850.04248,0.0185142364
1848.75684,0.0184812807
1847.47119,0.0184653979
1846.18555,0.0184630211
1844.89990,0.0184505153
1843.61426,0.0184073839
1842.32861,0.0183535088
1841.04297,0.0183205660
1839.75732,0.0183016658
1838.47168,0.0182702653
1837.18604,0.0182147082
1835.90039,0.0181487110
1834.61475,0.0180983488
1833.32910,0.0180769488
1832.04346,0.0180749502
1830.75781,0.0180751663
1829.47217,0.0180766787
1828.18652,0.0180867426
1826.90088,0.0180796478
1825.61523,0.0180032551
1824.32959,0.0178467892
1823.04395,0.0176812131
1821.75830,0.0175905507
1820.47266,0.0175814666
1819.18701,0.0175986923
1817.90137,0.0176012255
1816.61572,0.0176004190
1815.33008,0.0176220648
1814.04443,0.0176616404
1812.75879,0.0176985506
1811.47314,0.0177277252
1810.18750,0.0177458469
1808.90186,0.0177333876
1807.61621,0.0176827256
1806.33057,0.0176215786
1805.04492,0.0175894462
1803.75928,0.0176103637
1802.47363,0.0176817533
1801.18799,0.0177690908
1799.90234,0.0178271029
1798.61670,0.0178525355
1797.33105,0.0178887341
1796.04541,0.0179720111
1794.75977,0.0181147847
1793.47412,0.0183085240
1792.18848,0.0184974615
1790.90283,0.0186060108
1789.61719,0.0186664034
1788.33154,0.0187934004
1787.04590,0.0190454535
1785.76025,0.0193990134
1784.47461,0.0197907910
1783.18896,0.0201720465
1781.90332,0.0205560252
1780.61768,0.0210025273
1779.33203,0.0215462949
1778.04639,0.0221584570
1776.76074,0.0228022598
1775.47510,0.0234958138
1774.18945,0.0243133288
1772.90381,0.0253585875
1771.61816,0.0266628247
1770.33252,0.0280847773
1769.04688,0.0294979960
1767.76123,0.0309395380
1766.47559,0.0324477963
1765.18994,0.0340127908
1763.90430,0.0357446149
1762.61865,0.0378937535
1761.33301,0.0405129008
1760.04736,0.0432579406
1758.76172,0.0459416769
1757.47607,0.0488411784
1756.19043,0.0521086752
1754.90479,0.0554338843
1753.61914,0.0585878491
1752.33350,0.0618661270
1751.04785,0.0658309013
1749.76221,0.0707415491
1748.47656,0.0761042833
1747.19092,0.0811738297
1745.90527,0.0857948810
1744.61963,0.0902351066
1743.33398,0.0946874693
1742.04834,0.0992356986
1740.76270,0.1040252298
1739.47705,0.1089743227
1738.19141,0.1134647802
1736.90576,0.1170819923
1735.62012,0.1203621328
1734.33447,0.1243496612
1733.04883,0.1291250587
1731.76318,0.1332459748
1730.47754,0.1361515373
1729.19189,0.1384589672
1727.90625,0.1405030787
1726.62061,0.1422462463
1725.33496,0.1436530948
1724.04932,0.1447369307
1722.76367,0.1454968899
1721.47803,0.1459529549
1720.19238,0.1461375356
1718.90674,0.1459989548
1717.62109,0.1452913433
1716.33545,0.1437025517
1715.04980,0.1414746046
1713.76416,0.1392064393
1712.47852,0.1370136291
1711.19287,0.1346844286
1709.90723,0.1321451366
1708.62158,0.1295011938
1707.33594,0.1267069280
1706.05029,0.1234915107
1704.76465,0.1199130863
1703.47900,0.1165009663
1702.19336,0.1133475527
1700.90771,0.1098158807
1699.62207,0.1055181697
1698.33643,0.1012102440
1697.05078,0.0974201262
1695.76514,0.0935684666
1694.47949,0.0895746127
1693.19385,0.0860669017
1691.90820,0.0831198841
1690.62256,0.0802783296
1689.33691,0.0773180202
1688.05127,0.0745037496
1686.76563,0.0720688775
1685.47998,0.0696555153
1684.19434,0.0666181147
1682.90869,0.0632580891
1681.62305,0.0606274232
1680.33740,0.0586748086
1679.05176,0.0569794625
1677.76611,0.0555236228
1676.48047,0.0543919615
1675.19482,0.0534334853
1673.90918,0.0523772389
1672.62354,0.0511830710
1671.33789,0.0498983711
1670.05225,0.0483980589
1668.76660,0.0467316210
1667.48096,0.0453808792
1666.19531,0.0445669144
1664.90967,0.0440520644
1663.62402,0.0436217897
1662.33838,0.0432403535
1661.05273,0.0429582037
1659.76709,0.0428233929
1658.48145,0.0428699628
1657.19580,0.0431004539
1655.91016,0.0434644297
1654.62451,0.0438298024
1653.33887,0.0438746437
1652.05322,0.0434142500
1650.76758,0.0431258976
1649.48193,0.0434570499
1648.19629,0.0442811213
1646.91064,0.0451951623
1645.62500,0.0455736071
1644.33936,0.0453695282
1643.05371,0.0451292470
1641.76807,0.0451405905
1640.48242,0.0453948490
1639.19678,0.0457825512
1637.91113,0.0461896397
1636.62549,0.0465233624
1635.33984,0.0466389805
1634.05420,0.0464395545
1632.76855,0.0460807607
1631.48291,0.0457433499
1630.19727,0.0455196463
1628.91162,0.0454961583
1627.62598,0.0456965007
1626.34033,0.0459496453
1625.05469,0.0459690690
1623.76904,0.0455858819
1622.48340,0.0449124314
1621.19775,0.0442873091
1619.91211,0.0439226441
1618.62646,0.0436989926
1617.34082,0.0432003252
1616.05518,0.0420517884
1614.76953,0.0405687168
1613.48389,0.0392962061
1612.19824,0.0382516123
1610.91260,0.0372304507
1609.62695,0.0361697376
1608.34131,0.0351572707
1607.05566,0.0342388526
1605.77002,0.0333344527
1604.48438,0.0323655978
1603.19873,0.0313694961
1601.91309,0.0304597113
1600.62744,0.0296878181
1599.34180,0.0289777797
1598.05615,0.0282309987
1596.77051,0.0274470579
1595.48486,0.0266838539
1594.19922,0.0259350128
1592.91357,0.0251270887
1591.62793,0.0242523365
1590.34229,0.0234114714
1589.05664,0.0227077398
1587.77100,0.0221531466
1586.48535,0.0216886140
1585.19971,0.0212465990
1583.91406,0.0207782816
1582.62842,0.0202776231
1581.34277,0.0198048800
1580.05713,0.0194386709
1578.77148,0.0191713199
1577.48584,0.0188508201
1576.20020,0.0182815231
1574.91455,0.0175713580
1573.62891,0.0170720406
1572.34326,0.0168272909
1571.05762,0.0166143887
1569.77197,0.0162039697
1568.48633,0.0155822113
1567.20068,0.0149763739
1565.91504,0.0145253679
1564.62939,0.0142241102
1563.34375,0.0140819931
1562.05811,0.0141155804
1560.77246,0.0142570101
1559.48682,0.0142732998
1558.20117,0.0138987368
1556.91553,0.0134474849
1555.62988,0.0131941764
1554.34424,0.0129301874
1553.05859,0.0125189703
1551.77295,0.0120097473
1550.48730,0.0115346145
1549.20166,0.0112126581
1547.91602,0.0110901408
1546.63037,0.0111195911
1545.34473,0.0112049812
1544.05908,0.0112762274
1542.77344,0.0113538634
1541.48779,0.0115061449
1540.20215,0.0116021140
1538.91650,0.0113775395
1537.63086,0.0110118883
1536.34521,0.0107487440
1535.05957,0.0105578955
1533.77393,0.0103044901
1532.48828,0.0099687688
1531.20264,0.0097415959
1529.91699,0.0097497236
1528.63135,0.0098983198
1527.34570,0.0099939061
1526.06006,0.0099004116
1524.77441,0.0096766101
1523.48877,0.0094875544
1522.20313,0.0093926881
1520.91748,0.0093194228
1519.63184,0.0091970675
1518.34619,0.0090274084
1517.06055,0.0088268537
1515.77490,0.0086321728
1514.48926,0.0085117286
1513.20361,0.0085040722
1511.91797,0.0085990354
1510.63232,0.0087788282
1509.34668,0.0090239728
1508.06104,0.0092412774
1506.77539,0.0091766557
1505.48975,0.0087989047
1504.20410,0.0085115181
1502.91846,0.0084377397
1501.63281,0.0084974999
1500.34717,0.0086269723
1499.06152,0.0087675238
1497.77588,0.0088352282
1496.49023,0.0087857759
1495.20459,0.0087124808
1493.91895,0.0087413220
1492.63330,0.0088968128
1491.34766,0.0091274828
1490.06201,0.0093420083
1488.77637,0.0094602248
1487.49072,0.0095188292
1486.20508,0.0096170325
1484.91943,0.0097780786
1483.63379,0.0099686636
1482.34814,0.0101474347
1481.06250,0.0102875512
1479.77686,0.0104083326
1478.49121,0.0105662234
1477.20557,0.0107889995
1475.91992,0.0110477591
1474.63428,0.0113240508
1473.34863,0.0116655277
1472.06299,0.0120713850
1470.77734,0.0124200024
1469.49170,0.0126959160
1468.20605,0.0130196940
1466.92041,0.0134832384
1465.63477,0.0140811643
1464.34912,0.0147174578
1463.06348,0.0153000625
1461.77783,0.0158436578
1460.49219,0.0164451692
1459.20654,0.0172874574
1457.92090,0.0186658073
1456.63525,0.0205650087
1455.34961,0.0222263224
1454.06396,0.0233553052
1452.77832,0.0243453290
1451.49268,0.0254867077
1450.20703,0.0268512759
1448.92139,0.0283996779
1447.63574,0.0300370324
1446.35010,0.0316274799
1445.06445,0.0330671817
1443.77881,0.0343513265
1442.49316,0.0355098173
1441.20752,0.0365298875
1439.92188,0.0373946540
1438.63623,0.0381685682
1437.35059,0.0389888808
1436.06494,0.0399141461
1434.77930,0.0408155359
1433.49365,0.0415927805
1432.20801,0.0422949716
1430.92236,0.0429680310
1429.63672,0.0435843542
1428.35107,0.0441112556
1427.06543,0.0445755236
1425.77979,0.0450194851
1424.49414,0.0454466343
1423.20850,0.0458414666
1421.92285,0.0462397411
1420.63721,0.0467804521
1419.35156,0.0476449169
1418.06592,0.0488140360
1416.78027,0.0499617308
1415.49463,0.0508897752
1414.20898,0.0516845211
1412.92334,0.0524623767
1411.63770,0.0532736108
1410.35205,0.0541278906
1409.06641,0.0550033562
1407.78076,0.0558647476
1406.49512,0.0567030534
1405.20947,0.0575070381
1403.92383,0.0581997335
1402.63818,0.0586934760
1401.35254,0.0589805581
1400.06689,0.0590977781
1398.78125,0.0590690747
1397.49561,0.0589162782
1396.20996,0.0586654693
1394.92432,0.0583253056
1393.63867,0.0579036772
1392.35303,0.0574336126
1391.06738,0.0569511913
1389.78174,0.0564825647
1388.49609,0.0560454577
1387.21045,0.0556242689
1385.92480,0.0551673360
1384.63916,0.0546619706
1383.35352,0.0541700572
1382.06787,0.0537721850
1380.78223,0.0535149351
1379.49658,0.0533854477
1378.21094,0.0533227548
1376.92529,0.0532757528
1375.63965,0.0532504991
1374.35400,0.0532849431
1373.06836,0.0533878505
1371.78271,0.0535382181
1370.49707,0.0537531711
1369.21143,0.0540924743
1367.92578,0.0545895472
1366.64014,0.0552134849
1365.35449,0.0559207797
1364.06885,0.0566991568
1362.78320,0.0575104952
1361.49756,0.0582498498
1360.21191,0.0588677488
1358.92627,0.0594639070
1357.64063,0.0601752214
1356.35498,0.0610516518
1355.06934,0.0620374605
1353.78369,0.0630310550
1352.49805,0.0639626086
1351.21240,0.0648146942
1349.92676,0.0655912161
1348.64111,0.0663008019
1347.35547,0.0669636056
1346.06982,0.0676101893
1344.78418,0.0682610050
1343.49854,0.0689143687
1342.21289,0.0695554242
1340.92725,0.0701778233
1339.64160,0.0707949027
1338.35596,0.0714166090
1337.07031,0.0720188320
1335.78467,0.0725692287
1334.49902,0.0730742663
1333.21338,0.0735749677
1331.92773,0.0740984008
1330.64209,0.0746162459
1329.35645,0.0750571042
1328.07080,0.0753748193
1326.78516,0.0756043792
1325.49951,0.0758248344
1324.21387,0.0760690942
1322.92822,0.0763054341
1321.64258,0.0765090808
1320.35693,0.0766996369
1319.07129,0.0768875331
1317.78564,0.0770375729
1316.50000,0.0771255493
1315.21436,0.0771870762
1313.92871,0.0772685036
1312.64307,0.0773542374
1311.35742,0.0773673207
1310.07178,0.0772438198
1308.78613,0.0770035386
1307.50049,0.0767495260
1306.21484,0.0765915886
1304.92920,0.0765580535
1303.64355,0.0765815154
1302.35791,0.0765632391
1301.07227,0.0764373466
1299.78662,0.0761882812
1298.50098,0.0758389831
1297.21533,0.0754424483
1295.92969,0.0750726461
1294.64404,0.0747854561
1293.35840,0.0745686069
1292.07275,0.0743464530
1290.78711,0.0740612522
1289.50146,0.0737387910
1288.21582,0.0734569281
1286.93018,0.0732622147
1285.64453,0.0731415898
1284.35889,0.0730665475
1283.07324,0.0730345026
1281.78760,0.0730607510
1280.50195,0.0731446519
1279.21631,0.0732544288
1277.93066,0.0733573735
1276.64502,0.0734694675
1275.35938,0.0736627430
1274.07373,0.0740092695
1272.78809,0.0745205954
1271.50244,0.0751485601
1270.21680,0.0758396983
1268.93115,0.0765850991
1267.64551,0.0774225518
1266.35986,0.0783999413
1265.07422,0.0795380995
1263.78857,0.0808281675
1262.50293,0.0822625384
1261.21729,0.0838556662
1259.93164,0.0856268704
1258.64600,0.0875715241
1257.36035,0.0896677151
1256.07471,0.0919073522
1254.78906,0.0942978337
1253.50342,0.0968327746
1252.21777,0.0994847715
1250.93213,0.1022413224
1249.64648,0.1051258147
1248.36084,0.1081515998
1247.07520,0.1112601236
1245.78955,0.1143370569
1244.50391,0.1173055544
1243.21826,0.1201782674
1241.93262,0.1230016202
1240.64697,0.1257717311
1239.36133,0.1284377426
1238.07568,0.1309734285
1236.79004,0.1334018856
1235.50439,0.1357385963
1234.21875,0.1379401833
1232.93311,0.1399363726
1231.64746,0.1416918486
1230.36182,0.1431987882
1229.07617,0.1444249302
1227.79053,0.1453102976
1226.50488,0.1458227634
1225.21924,0.1459842920
1223.93359,0.1458312422
1222.64795,0.1453715116
1221.36230,0.1445899308
1220.07666,0.1434883028
1218.79102,0.1421211809
1217.50537,0.1405901909
1216.21973,0.1389780641
1214.93408,0.1372759789
1213.64844,0.1354005933
1212.36279,0.1332980543
1211.07715,0.1310178638
1209.79150,0.1286691129
1208.50586,0.1263244301
1207.22021,0.1239809766
1205.93457,0.1215999350
1204.64893,0.1191665903
1203.36328,0.1167155206
1202.07764,0.1142994538
1200.79199,0.1119317561
1199.50635,0.1095716432
1198.22070,0.1071777344
1196.93506,0.1047628671
1195.64941,0.1023788527
1194.36377,0.1000547335
1193.07813,0.0977679044
1191.79248,0.0954712853
1190.50684,0.0931322500
1189.22119,0.0907481238
1187.93555,0.0883437991
1186.64990,0.0859614164
1185.36426,0.0836336613
1184.07861,0.0813411549
1182.79297,0.0790050030
1181.50732,0.0765472725
1180.22168,0.0739588812
1178.93604,0.0712892637
1177.65039,0.0685807616
1176.36475,0.0658510178
1175.07910,0.0631392896
1173.79346,0.0605323985
1172.50781,0.0581206270
1171.22217,0.0559521653
1169.93652,0.0540348925
1168.65088,0.0523595698
1167.36523,0.0509081408
1166.07959,0.0496568717
1164.79395,0.0485884510
1163.50830,0.0477017984
1162.22266,0.0470075198
1160.93701,0.0465178378
1159.65137,0.0462384112
1158.36572,0.0461669229
1157.08008,0.0462890640
1155.79443,0.0465794690
1154.50879,0.0470082685
1153.22314,0.0475420915
1151.93750,0.0481360815
1150.65186,0.0487470143
1149.36621,0.0493682884
1148.08057,0.0500321090
1146.79492,0.0507481769
1145.50928,0.0514560156
1144.22363,0.0520667657
1142.93799,0.0525426231
1141.65234,0.0529042222
1140.36670,0.0531816147
1139.08105,0.0533930287
1137.79541,0.0535714813
1136.50977,0.0537675880
1135.22412,0.0539991260
1133.93848,0.0542048961
1132.65283,0.0542832986
1131.36719,0.0541978888
1130.08154,0.0540234260
1128.79590,0.0538626909
1127.51025,0.0537314303
1126.22461,0.0535573959
1124.93896,0.0532690510
1123.65332,0.0528415665
1122.36768,0.0522824526
1121.08203,0.0516246371
1119.79639,0.0509238280
1118.51074,0.0502191521
1117.22510,0.0495061576
1115.93945,0.0487730205
1114.65381,0.0480352156
1113.36816,0.0473053046
1112.08252,0.0465642549
1110.79688,0.0457924791
1109.51123,0.0449956246
1108.22559,0.0441814326
1106.93994,0.0433498584
1105.65430,0.0425223596
1104.36865,0.0417463854
1103.08301,0.0410554633
1101.79736,0.0404515825
1100.51172,0.0399198197
1099.22607,0.0394329838
1097.94043,0.0389546454
1096.65479,0.0384780802
1095.36914,0.0380594209
1094.08350,0.0377841182
1092.79785,0.0377021208
1091.51221,0.0378074981
1090.22656,0.0380601026
1088.94092,0.0384082235
1087.65527,0.0388112813
1086.36963,0.0392612405
1085.08398,0.0397693552
1083.79834,0.0403224342
1082.51270,0.0408627726
1081.22705,0.0413272157
1079.94141,0.0416862853
1078.65576,0.0419276357
1077.37012,0.0420223624
1076.08447,0.0419412963
1074.79883,0.0417102836
1073.51318,0.0414272696
1072.22754,0.0412082225
1070.94189,0.0411203392
1069.65625,0.0411600396
1068.37061,0.0412796475
1067.08496,0.0414368659
1065.79932,0.0416322127
1064.51367,0.0418909192
1063.22803,0.0422085226
1061.94238,0.0425419174
1060.65674,0.0428555682
1059.37109,0.0431245826
1058.08545,0.0432836190
1056.79980,0.0432366356
1055.51416,0.0429585725
1054.22852,0.0425355770
1052.94287,0.0420755446
1051.65723,0.0416280814
1050.37158,0.0412089378
1049.08594,0.0408418141
1047.80029,0.0405369177
1046.51465,0.0402667113
1045.22900,0.0399892665
1043.94336,0.0396767706
1042.65771,0.0393210538
1041.37207,0.0389387906
1040.08643,0.0385644101
1038.80078,0.0382136479
1037.51514,0.0378625169
1036.22949,0.0374832526
1034.94385,0.0370930098
1033.65820,0.0367472693
1032.37256,0.0364872888
1031.08691,0.0363045223
1029.80127,0.0361560658
1028.51563,0.0360099599
1027.22998,0.0358735546
1025.94434,0.0357651301
1024.65869,0.0356581099
1023.37305,0.0354859345
1022.08740,0.0352331512
1020.80176,0.0349988565
1019.51611,0.0349189527
1018.23047,0.0350210741
1016.94482,0.0351959802
1015.65918,0.0353190340
1014.37354,0.0353531204
1013.08789,0.0353255458
1011.80225,0.0352694467
1010.51660,0.0352233201
1009.23096,0.0352423862
1007.94531,0.0353648588
1006.65967,0.0355747417
1005.37402,0.0358053818
1004.08838,0.0359653644
1002.80273,0.0359847955
1001.51709,0.0358751304
1000.23145,0.0357339866
998.94580,0.0356574915
997.66016,0.0356574059
996.37451,0.0356803089
995.08887,0.0356787071
993.80322,0.0356363840
992.51758,0.0355550461
991.23193,0.0354492553
989.94629,0.0353373103
988.66064,0.0352272801
987.37500,0.0351261720
986.08936,0.0350517184
984.80371,0.0350055024
983.51807,0.0349509344
982.23242,0.0348553583
980.94678,0.0347413793
979.66113,0.0346615799
978.37549,0.0346303247
977.08984,0.0346111469
975.80420,0.0345698260
974.51855,0.0345165431
973.23291,0.0344868377
971.94727,0.0344835557
970.66162,0.0344472677
969.37598,0.0343069509
968.09033,0.0340731293
966.80469,0.0338578150
965.51904,0.0337757990
964.23340,0.0338378325
962.94775,0.0339568369
961.66211,0.0340347700
960.37646,0.0340157337
959.09082,0.0338836424
957.80518,0.0336628035
956.51953,0.0334292389
955.23389,0.0332857892
953.94824,0.0332955718
952.66260,0.0334366225
951.37695,0.0336218253
950.09131,0.0337631255
948.80566,0.0338340253
947.52002,0.0338819958
946.23438,0.0339659005
944.94873,0.0340750031
943.66309,0.0341187380
942.37744,0.0340117849
941.09180,0.0337518230
939.80615,0.0334088318
938.52051,0.0330619588
937.23486,0.0327559710
935.94922,0.0324927345
934.66357,0.0322385021
933.37793,0.0319542401
932.09229,0.0316300131
930.80664,0.0312791541
929.52100,0.0308963954
928.23535,0.0304485820
926.94971,0.0299233124
925.66406,0.0293663610
924.37842,0.0288537722
923.09277,0.0284291431
921.80713,0.0280638747
920.52148,0.0276718512
919.23584,0.0271816496
917.95020,0.0266250335
916.66455,0.0261361245
915.37891,0.0258240942
914.09326,0.0256620683
912.80762,0.0255495720
911.52197,0.0254618917
910.23633,0.0254733376
908.95068,0.0256351288
907.66504,0.0259006396
906.37939,0.0261901747
905.09375,0.0264723655
903.80811,0.0267516561
902.52246,0.0270037465
901.23682,0.0271490235
899.95117,0.0270970277
