3999.64014,0.0066426634
3998.35449,0.0065323859
3997.06885,0.0065867589
3995.78320,0.0067916191
3994.49756,0.0068620145
3993.21191,0.0065373261
3991.92627,0.0058635147
3990.64063,0.0051574521
3989.35498,0.0047370913
3988.06934,0.0046987804
3986.78369,0.0049418402
3985.49805,0.0053622420
3984.21240,0.0059406082
3982.92676,0.0066066547
3981.64111,0.0071032103
3980.35547,0.0071445750
3979.06982,0.0067328825
3977.78418,0.0061947363
3976.49854,0.0058783134
3975.21289,0.0058902255
3973.92725,0.0061163632
3972.64160,0.0063837026
3971.35596,0.0065756687
3970.07031,0.0066942116
3968.78467,0.0068633030
3967.49902,0.0071881819
3966.21338,0.0075873467
3964.92773,0.0078341113
3963.64209,0.0077622402
3962.35645,0.0073662596
3961.07080,0.0067556775
3959.78516,0.0061465818
3958.49951,0.0058429451
3957.21387,0.0060509983
3955.92822,0.0066400352
3954.64258,0.0071797599
3953.35693,0.0072818580
3952.07129,0.0069137192
3950.78564,0.0064112339
3949.50000,0.0062209163
3948.21436,0.0065184063
3946.92871,0.0069867647
3945.64307,0.0071430486
3944.35742,0.0068919691
3943.07178,0.0065778233
3941.78613,0.0065325964
3940.50049,0.0067061987
3939.21484,0.0068268022
3937.92920,0.0067940648
3936.64355,0.0067300694
3935.35791,0.0067498665
3934.07227,0.0068189660
3932.78662,0.0068076854
3931.50098,0.0066644540
3930.21533,0.0064919982
3928.92969,0.0063947360
3927.64404,0.0063529424
3926.35840,0.0063687032
3925.07275,0.0065847617
3923.78711,0.0070816074
3922.50146,0.0076262024
3921.21582,0.0078775762
3919.93018,0.0078072008
3918.64453,0.0076855347
3917.35889,0.0077432408
3916.07324,0.0079532880
3914.78760,0.0081220269
3913.50195,0.0080957850
3912.21631,0.0078204582
3910.93066,0.0073306118
3909.64502,0.0067706900
3908.35938,0.0063651307
3907.07373,0.0062775351
3905.78809,0.0064862436
3904.50244,0.0067993500
3903.21680,0.0070213848
3901.93115,0.0071838135
3900.64551,0.0074700606
3899.35986,0.0078553297
3898.07422,0.0080858152
3896.78857,0.0080206012
3895.50293,0.0077694608
3894.21729,0.0075109862
3892.93164,0.0073465668
3891.64600,0.0072605093
3890.36035,0.0071453378
3889.07471,0.0069413637
3887.78906,0.0067517594
3886.50342,0.0067263888
3885.21777,0.0069105895
3883.93213,0.0071967621
3882.64648,0.0074547068
3881.36084,0.0076780776
3880.07520,0.0078669786
3878.78955,0.0079085492
3877.50391,0.0077520162
3876.21826,0.0075522857
3874.93262,0.0075086686
3873.64697,0.0076849284
3872.36133,0.0079593509
3871.07568,0.0081305457
3869.79004,0.0080833100
3868.50439,0.0078943679
3867.21875,0.0078036957
3865.93311,0.0080043320
3864.64746,0.0084429132
3863.36182,0.0088013876
3862.07617,0.0087357229
3860.79053,0.0082937069
3859.50488,0.0078240167
3858.21924,0.0075688553
3856.93359,0.0075804181
3855.64795,0.0078517180
3854.36230,0.0083857998
3853.07666,0.0090562180
3851.79102,0.0093935346
3850.50537,0.0091321617
3849.21973,0.0086276056
3847.93408,0.0082113929
3846.64844,0.0079859281
3845.36279,0.0079376278
3844.07715,0.0080342861
3842.79150,0.0082965288
3841.50586,0.0087439111
3840.22021,0.0092525426
3838.93457,0.0095899059
3837.64893,0.0096508833
3836.36328,0.0095641566
3835.07764,0.0094329230
3833.79199,0.0091640446
3832.50635,0.0086504472
3831.22070,0.0079163006
3829.93506,0.0070990254
3828.64941,0.0063709361
3827.36377,0.0058781561
3826.07813,0.0056956778
3824.79248,0.0057916553
3823.50684,0.0060932091
3822.22119,0.0066319923
3820.93555,0.0074862037
3819.64990,0.0084135374
3818.36426,0.0088599296
3817.07861,0.0085913260
3815.79297,0.0077783428
3814.50732,0.0067897527
3813.22168,0.0060384250
3811.93604,0.0056775026
3810.65039,0.0056006126
3809.36475,0.0056646778
3808.07910,0.0057930984
3806.79346,0.0059603169
3805.50781,0.0061282562
3804.22217,0.0062134848
3802.93652,0.0061622830
3801.65088,0.0060149599
3800.36523,0.0058750859
3799.07959,0.0057936227
3797.79395,0.0057329228
3796.50830,0.0057062474
3795.22266,0.0057973480
3793.93701,0.0060067708
3792.65137,0.0061961282
3791.36572,0.0062227282
3790.08008,0.0060695568
3788.79443,0.0058629373
3787.50879,0.0057986858
3786.22314,0.0059924661
3784.93750,0.0063585639
3783.65186,0.0066660843
3782.36621,0.0067725563
3781.08057,0.0067515760
3779.79492,0.0067312792
3778.50928,0.0067013884
3777.22363,0.0065160939
3775.93799,0.0060904264
3774.65234,0.0055251522
3773.36670,0.0050502745
3772.08105,0.0049072285
3770.79541,0.0051894640
3769.50977,0.0057125166
3768.22412,0.0061273901
3766.93848,0.0062969439
3765.65283,0.0063719340
3764.36719,0.0064770207
3763.08154,0.0065524103
3761.79590,0.0064623603
3760.51025,0.0061498117
3759.22461,0.0057636388
3757.93896,0.0056788139
3756.65332,0.0061249486
3755.36768,0.0068441052
3754.08203,0.0074610012
3752.79639,0.0079351766
3751.51074,0.0085166646
3750.22510,0.0092706028
3748.93945,0.0097257392
3747.65381,0.0096129030
3746.36816,0.0093091615
3745.08252,0.0091461204
3743.79688,0.0090549747
3742.51123,0.0087650148
3741.22559,0.0082606738
3739.93994,0.0077627408
3738.65430,0.0074325078
3737.36865,0.0073464345
3736.08301,0.0075100120
3734.79736,0.0077805035
3733.51172,0.0078997975
3732.22607,0.0078284703
3730.94043,0.0078395139
3729.65479,0.0081615634
3728.36914,0.0087886024
3727.08350,0.0095277727
3725.79785,0.0100953160
3724.51221,0.0102599598
3723.22656,0.0099940384
3721.94092,0.0094240345
3720.65527,0.0087067755
3719.36963,0.0080513209
3718.08398,0.0076684086
3716.79834,0.0075836051
3715.51270,0.0076245689
3714.22705,0.0076455665
3712.94141,0.0077146506
3711.65576,0.0080586262
3710.37012,0.0086880513
3709.08447,0.0091041140
3707.79883,0.0089257453
3706.51318,0.0083889402
3705.22754,0.0079208342
3703.94189,0.0077632423
3702.65625,0.0079019852
3701.37061,0.0081411218
3700.08496,0.0083108833
3698.79932,0.0084363148
3697.51367,0.0085894782
3696.22803,0.0087014157
3694.94238,0.0086451396
3693.65674,0.0084281322
3692.37109,0.0082477722
3691.08545,0.0083594630
3689.79980,0.0088276984
3688.51416,0.0092490781
3687.22852,0.0090074548
3685.94287,0.0081006102
3684.65723,0.0070316712
3683.37158,0.0062093097
3682.08594,0.0058548041
3680.80029,0.0060360888
3679.51465,0.0066189026
3678.22900,0.0073182653
3676.94336,0.0079013519
3675.65771,0.0082784556
3674.37207,0.0084320651
3673.08643,0.0084548695
3671.80078,0.0085677756
3670.51514,0.0088451607
3669.22949,0.0089774588
3667.94385,0.0084910057
3666.65820,0.0074779605
3665.37256,0.0064755497
3664.08691,0.0057893470
3662.80127,0.0054059587
3661.51563,0.0051946244
3660.22998,0.0051177675
3658.94434,0.0053332839
3657.65869,0.0060526519
3656.37305,0.0072221602
3655.08740,0.0083601484
3653.80176,0.0090511693
3652.51611,0.0095252851
3651.23047,0.0103307329
3649.94482,0.0116890874
3648.65918,0.0130051840
3647.37354,0.0132541405
3646.08789,0.0126613993
3644.80225,0.0121671585
3643.51660,0.0120162414
3642.23096,0.0120655037
3640.94531,0.0122112725
3639.65967,0.0124362782
3638.37402,0.0127099631
3637.08838,0.0129400268
3635.80273,0.0130559448
3634.51709,0.0131320851
3633.23145,0.0133712105
3631.94580,0.0139573263
3630.66016,0.0149841709
3629.37451,0.0164639074
3628.08887,0.0181193724
3626.80322,0.0193257742
3625.51758,0.0199698564
3624.23193,0.0205110554
3622.94629,0.0211360548
3621.66064,0.0216330793
3620.37500,0.0216981377
3619.08936,0.0213193484
3617.80371,0.0209618863
3616.51807,0.0210860260
3615.23242,0.0215252694
3613.94678,0.0217572469
3612.66113,0.0215324499
3611.37549,0.0212015845
3610.08984,0.0214181338
3608.80420,0.0223891418
3607.51855,0.0235961918
3606.23291,0.0243273433
3604.94727,0.0244848207
3603.66162,0.0245850962
3602.37598,0.0251801386
3601.09033,0.0265122056
3599.80469,0.0282928273
3598.51904,0.0297331382
3597.23340,0.0302237589
3595.94775,0.0299754534
3594.66211,0.0297237411
3593.37646,0.0298892595
3592.09082,0.0301910713
3590.80518,0.0301617980
3589.51953,0.0297095757
3588.23389,0.0290924404
3586.94824,0.0286805723
3585.66260,0.0286306608
3584.37695,0.0286495201
3583.09131,0.0283648893
3581.80566,0.0277167410
3580.52002,0.0269248597
3579.23438,0.0263683796
3577.94873,0.0264082085
3576.66309,0.0270790104
3575.37744,0.0278847795
3574.09180,0.0280598961
3572.80615,0.0272315312
3571.52051,0.0258095358
3570.23486,0.0246215872
3568.94922,0.0242726486
3567.66357,0.0248237327
3566.37793,0.0257864054
3565.09229,0.0264554452
3563.80664,0.0265442636
3562.52100,0.0262172874
3561.23535,0.0257472619
3559.94971,0.0254650488
3558.66406,0.0256029218
3557.37842,0.0259428993
3556.09277,0.0259774979
3554.80713,0.0255729370
3553.52148,0.0251629930
3552.23584,0.0251672175
3550.95020,0.0254285168
3549.66455,0.0254720207
3548.37891,0.0252148937
3547.09326,0.0251052566
3545.80762,0.0256449040
3544.52197,0.0267421324
3543.23633,0.0275650695
3541.95068,0.0274476670
3540.66504,0.0266656056
3539.37939,0.0258810204
3538.09375,0.0251608267
3536.80811,0.0240422208
3535.52246,0.0225776806
3534.23682,0.0216369685
3532.95117,0.0217542276
3531.66553,0.0223452896
3530.37988,0.0224639922
3529.09424,0.0217761360
3527.80859,0.0205918252
3526.52295,0.0194404572
3525.23730,0.0188613888
3523.95166,0.0191688295
3522.66602,0.0200659242
3521.38037,0.0206908528
3520.09473,0.0202851109
3518.80908,0.0187788047
3517.52344,0.0168334786
3516.23779,0.0154944267
3514.95215,0.0154464636
3513.66650,0.0162902307
3512.38086,0.0167826265
3511.09521,0.0159964487
3509.80957,0.0141630759
3508.52393,0.0122523550
3507.23828,0.0109285526
3505.95264,0.0101438574
3504.66699,0.0096764509
3503.38135,0.0096259499
3502.09570,0.0101568410
3500.81006,0.0109282620
3499.52441,0.0114284027
3498.23877,0.0118000433
3496.95313,0.0125920037
3495.66748,0.0136993919
3494.38184,0.0141944466
3493.09619,0.0134269278
3491.81055,0.0117774094
3490.52490,0.0101427976
3489.23926,0.0093160104
3487.95361,0.0094390875
3486.66797,0.0094318921
3485.38232,0.0075295814
3484.09668,0.0033157007
3482.81104,-0.0013530205
3481.52539,-0.0041002319
3480.23975,-0.0042678006
3478.95410,-0.0028124445
3477.66846,-0.0008725672
3476.38281,0.0007080922
3475.09717,0.0012768108
3473.81152,0.0008755689
3472.52588,0.0002217958
3471.24023,-0.0002428978
3469.95459,-0.0007466856
3468.66895,-0.0015444549
3467.38330,-0.0025859564
3466.09766,-0.0037065402
3464.81201,-0.0046264604
3463.52637,-0.0048877751
3462.24072,-0.0044748648
3460.95508,-0.0042549325
3459.66943,-0.0052161529
3458.38379,-0.0072081634
3457.09814,-0.0088605192
3455.81250,-0.0089550111
3454.52686,-0.0078897998
3453.24121,-0.0077391863
3451.95557,-0.0102909785
3450.66992,-0.0148909129
3449.38428,-0.0186013188
3448.09863,-0.0188533217
3446.81299,-0.0156326797
3445.52734,-0.0111861220
3444.24170,-0.0079042893
3442.95605,-0.0070217056
3441.67041,-0.0085992003
3440.38477,-0.0115233865
3439.09912,-0.0139385574
3437.81348,-0.0150661729
3436.52783,-0.0163235199
3435.24219,-0.0193961002
3433.95654,-0.0233667139
3432.67090,-0.0251206476
3431.38525,-0.0232274588
3430.09961,-0.0193468314
3428.81396,-0.0160269346
3427.52832,-0.0146843027
3426.24268,-0.0159955993
3424.95703,-0.0201551747
3423.67139,-0.0256525762
3422.38574,-0.0287492964
3421.10010,-0.0256560408
3419.81445,-0.0162540562
3418.52881,-0.0055380990
3417.24316,-0.0001724181
3415.95752,-0.0035921580
3414.67188,-0.0133566810
3413.38623,-0.0230868328
3412.10059,-0.0273281932
3410.81494,-0.0256550163
3409.52930,-0.0227285642
3408.24365,-0.0236037560
3406.95801,-0.0282827094
3405.67236,-0.0320227183
3404.38672,-0.0313456319
3403.10107,-0.0281512365
3401.81543,-0.0264406074
3400.52979,-0.0268877633
3399.24414,-0.0276778806
3397.95850,-0.0290682632
3396.67285,-0.0327484384
3395.38721,-0.0372511148
3394.10156,-0.0383201987
3392.81592,-0.0351118483
3391.53027,-0.0317039415
3390.24463,-0.0320900381
3388.95898,-0.0366233513
3387.67334,-0.0436692461
3386.38770,-0.0520361662
3385.10205,-0.0601080358
3383.81641,-0.0649390593
3382.53076,-0.0644723475
3381.24512,-0.0595693998
3379.95947,-0.0525615588
3378.67383,-0.0454884358
3377.38818,-0.0405577496
3376.10254,-0.0398071818
3374.81689,-0.0430773310
3373.53125,-0.0472099036
3372.24561,-0.0491617173
3370.95996,-0.0494801328
3369.67432,-0.0514337942
3368.38867,-0.0574337766
3367.10303,-0.0659178197
3365.81738,-0.0716100037
3364.53174,-0.0696724281
3363.24609,-0.0605690591
3361.96045,-0.0504238829
3360.67480,-0.0460295416
3359.38916,-0.0499182343
3358.10352,-0.0594818741
3356.81787,-0.0692570508
3355.53223,-0.0736263469
3354.24658,-0.0700788721
3352.96094,-0.0610200949
3351.67529,-0.0522296056
3350.38965,-0.0483499318
3349.10400,-0.0500563346
3347.81836,-0.0543143041
3346.53271,-0.0572423153
3345.24707,-0.0572919138
3343.96143,-0.0560233332
3342.67578,-0.0560498089
3341.39014,-0.0580753982
3340.10449,-0.0598826259
3338.81885,-0.0589145236
3337.53320,-0.0557078533
3336.24756,-0.0536039509
3334.96191,-0.0551105663
3333.67627,-0.0593233407
3332.39063,-0.0631840378
3331.10498,-0.0645608008
3329.81934,-0.0630205795
3328.53369,-0.0592438951
3327.24805,-0.0543416627
3325.96240,-0.0497238450
3324.67676,-0.0466186106
3323.39111,-0.0456778742
3322.10547,-0.0467122123
3320.81982,-0.0492423885
3319.53418,-0.0531461984
3318.24854,-0.0586429015
3316.96289,-0.0650481358
3315.67725,-0.0701045990
3314.39160,-0.0717557892
3313.10596,-0.0703916475
3311.82031,-0.0680401474
3310.53467,-0.0656321868
3309.24902,-0.0628964305
3307.96338,-0.0609239414
3306.67773,-0.0623616464
3305.39209,-0.0680967644
3304.10645,-0.0756335109
3302.82080,-0.0817462206
3301.53516,-0.0850362852
3300.24951,-0.0854095966
3298.96387,-0.0826984718
3297.67822,-0.0772478059
3296.39258,-0.0704464093
3295.10693,-0.0638935640
3293.82129,-0.0582770370
3292.53564,-0.0544711202
3291.25000,-0.0542233810
3289.96436,-0.0590190701
3288.67871,-0.0683835968
3287.39307,-0.0790679976
3286.10742,-0.0870335773
3284.82178,-0.0901200175
3283.53613,-0.0891375914
3282.25049,-0.0861769840
3280.96484,-0.0823576450
3279.67920,-0.0779563040
3278.39355,-0.0741348416
3277.10791,-0.0725210384
3275.82227,-0.0729400069
3274.53662,-0.0733839348
3273.25098,-0.0726810843
3271.96533,-0.0720493272
3270.67969,-0.0733038262
3269.39404,-0.0763894841
3268.10840,-0.0793583244
3266.82275,-0.0801930875
3265.53711,-0.0785189420
3264.25146,-0.0754579976
3262.96582,-0.0722281113
3261.68018,-0.0698058084
3260.39453,-0.0691395625
3259.10889,-0.0707831681
3257.82324,-0.0741627291
3256.53760,-0.0778739527
3255.25195,-0.0808278471
3253.96631,-0.0827291533
3252.68066,-0.0835947916
3251.39502,-0.0837292522
3250.10938,-0.0834625140
3248.82373,-0.0826377049
3247.53809,-0.0815908983
3246.25244,-0.0827342570
3244.96680,-0.0890655145
3243.68115,-0.1000318751
3242.39551,-0.1104834154
3241.10986,-0.1148186028
3239.82422,-0.1111005694
3238.53857,-0.1013985202
3237.25293,-0.0904187411
3235.96729,-0.0835577175
3234.68164,-0.0834170580
3233.39600,-0.0883936957
3232.11035,-0.0951401219
3230.82471,-0.1014992148
3229.53906,-0.1063592583
3228.25342,-0.1081607118
3226.96777,-0.1055246666
3225.68213,-0.0994086191
3224.39648,-0.0931729823
3223.11084,-0.0893293172
3221.82520,-0.0873468816
3220.53955,-0.0855437145
3219.25391,-0.0837543085
3217.96826,-0.0829073116
3216.68262,-0.0831993595
3215.39697,-0.0841388404
3214.11133,-0.0855315849
3212.82568,-0.0869841352
3211.54004,-0.0871303454
3210.25439,-0.0846886411
3208.96875,-0.0802682787
3207.68311,-0.0760910287
3206.39746,-0.0741484910
3205.11182,-0.0751667991
3203.82617,-0.0787279829
3202.54053,-0.0834716558
3201.25488,-0.0873236358
3199.96924,-0.0884507671
3198.68359,-0.0868109912
3197.39795,-0.0844209865
3196.11230,-0.0835053995
3194.82666,-0.0843280926
3193.54102,-0.0852649733
3192.25537,-0.0847858414
3190.96973,-0.0827990770
3189.68408,-0.0802063048
3188.39844,-0.0775456801
3187.11279,-0.0743777156
3185.82715,-0.0701494366
3184.54150,-0.0653257594
3183.25586,-0.0612269305
3181.97021,-0.0586462021
3180.68457,-0.0571785606
3179.39893,-0.0561607368
3178.11328,-0.0557643175
3176.82764,-0.0568652414
3175.54199,-0.0599398986
3174.25635,-0.0641976595
3172.97070,-0.0676386207
3171.68506,-0.0683773085
3170.39941,-0.0661137477
3169.11377,-0.0622560270
3167.82813,-0.0584529266
3166.54248,-0.0553721450
3165.25684,-0.0528464615
3163.97119,-0.0506827347
3162.68555,-0.0491685160
3161.39990,-0.0491147898
3160.11426,-0.0511060357
3158.82861,-0.0543889068
3157.54297,-0.0569744222
3156.25732,-0.0574054755
3154.97168,-0.0560382120
3153.68604,-0.0541899726
3152.40039,-0.0525639951
3151.11475,-0.0509178080
3149.82910,-0.0488176197
3148.54346,-0.0463054441
3147.25781,-0.0438504480
3145.97217,-0.0417453051
3144.68652,-0.0397431701
3143.40088,-0.0375484191
3142.11523,-0.0355784111
3140.82959,-0.0346651003
3139.54395,-0.0349587761
3138.25830,-0.0356531031
3136.97266,-0.0358282365
3135.68701,-0.0352377966
3134.40137,-0.0342781730
3133.11572,-0.0335468128
3131.83008,-0.0334196016
3130.54443,-0.0337079950
3129.25879,-0.0336732119
3127.97314,-0.0326021723
3126.68750,-0.0304736588
3125.40186,-0.0279308893
3124.11621,-0.0255615003
3122.83057,-0.0233458150
3121.54492,-0.0210450348
3120.25928,-0.0188721586
3118.97363,-0.0174331777
3117.68799,-0.0169769675
3116.40234,-0.0170472115
3115.11670,-0.0170274992
3113.83105,-0.0167700034
3112.54541,-0.0164475087
3111.25977,-0.0159512367
3109.97412,-0.0149078723
3108.68848,-0.0133532183
3107.40283,-0.0119966390
3106.11719,-0.0114744296
3104.83154,-0.0114894053
3103.54590,-0.0110967569
3102.26025,-0.0098094847
3100.97461,-0.0080787307
3099.68896,-0.0066216299
3098.40332,-0.0056255483
3097.11768,-0.0047926488
3095.83203,-0.0038878068
3094.54639,-0.0029889429
3093.26074,-0.0022306025
3091.97510,-0.0014813580
3090.68945,-0.0004108230
3089.40381,0.0010692927
3088.11816,0.0025204129
3086.83252,0.0033111358
3085.54688,0.0033140834
3084.26123,0.0031531991
3082.97559,0.0036485340
3081.68994,0.0050118314
3080.40430,0.0066728662
3079.11865,0.0079479618
3077.83301,0.0087677883
3076.54736,0.0095796110
3075.26172,0.0106354030
3073.97607,0.0116543053
3072.69043,0.0122442609
3071.40479,0.0123954974
3070.11914,0.0124355322
3068.83350,0.0126701687
3067.54785,0.0132237440
3066.26221,0.0141157936
3064.97656,0.0153191825
3063.69092,0.0166748781
3062.40527,0.0178465210
3061.11963,0.0185097232
3059.83398,0.0186542943
3058.54834,0.0186484586
3057.26270,0.0189194921
3055.97705,0.0195989590
3054.69141,0.0205029417
3053.40576,0.0213726405
3052.12012,0.0220725480
3050.83447,0.0226370189
3049.54883,0.0232265014
3048.26318,0.0240117423
3046.97754,0.0250278395
3045.69189,0.0261266939
3044.40625,0.0270630848
3043.12061,0.0276616421
3041.83496,0.0279847123
3040.54932,0.0283364505
3039.26367,0.0290005002
3037.97803,0.0299604759
3036.69238,0.0309490990
3035.40674,0.0317487195
3034.12109,0.0323521867
3032.83545,0.0328666903
3031.54980,0.0333797634
3030.26416,0.0339177325
3028.97852,0.0344603807
3027.69287,0.0349988565
3026.40723,0.0355930328
3025.12158,0.0363055058
3023.83594,0.0370602496
3022.55029,0.0376738645
3021.26465,0.0380826481
3019.97900,0.0384550020
3018.69336,0.0389800481
3017.40771,0.0395981334
3016.12207,0.0400576741
3014.83643,0.0402570553
3013.55078,0.0404106453
3012.26514,0.0407953411
3010.97949,0.0414039753
3009.69385,0.0419762507
3008.40820,0.0423440263
3007.12256,0.0426183492
3005.83691,0.0430221930
3004.55127,0.0436507836
3003.26563,0.0444379412
3001.97998,0.0452777259
3000.69434,0.0461214669
2999.40869,0.0469602197
2998.12305,0.0477323942
2996.83740,0.0482771769
2995.55176,0.0484317988
2994.26611,0.0482092537
2992.98047,0.0478630997
2991.69482,0.0477258973
2990.40918,0.0479682572
2989.12354,0.0485011190
2987.83789,0.0490859859
2986.55225,0.0495404266
2985.26660,0.0498705246
2983.98096,0.0502298772
2982.69531,0.0507463738
2981.40967,0.0513859950
2980.12402,0.0519809462
2978.83838,0.0524032898
2977.55273,0.0526993349
2976.26709,0.0530321375
2974.98145,0.0534863584
2973.69580,0.0539572686
2972.41016,0.0542649291
2971.12451,0.0543349199
2969.83887,0.0542306155
2968.55322,0.0540405475
2967.26758,0.0538277365
2965.98193,0.0536859967
2964.69629,0.0537456423
2963.41064,0.0540560856
2962.12500,0.0544988550
2960.83936,0.0548780337
2959.55371,0.0550926551
2958.26807,0.0552082211
2956.98242,0.0553671308
2955.69678,0.0556492805
2954.41113,0.0560135357
2953.12549,0.0563547239
2951.83984,0.0565922223
2950.55420,0.0566973910
2949.26855,0.0566837937
2947.98291,0.0566173755
2946.69727,0.0566169322
2945.41162,0.0567764714
2944.12598,0.0570802689
2942.84033,0.0574141406
2941.55469,0.0576529577
2940.26904,0.0577310361
2938.98340,0.0576735623
2937.69775,0.0575899631
2936.41211,0.0575788915
2935.12646,0.0575969145
2933.84082,0.0574786738
2932.55518,0.0571211837
2931.26953,0.0566050410
2929.98389,0.0561081693
2928.69824,0.0557631999
2927.41260,0.0556115508
2926.12695,0.0556214154
2924.84131,0.0557212569
2923.55566,0.0558626577
2922.27002,0.0560476668
2920.98438,0.0562679619
2919.69873,0.0564739890
2918.41309,0.0566655397
2917.12744,0.0569388233
2915.84180,0.0573503822
2914.55615,0.0577953756
2913.27051,0.0581219010
2911.98486,0.0583157428
2910.69922,0.0584855415
2909.41357,0.0587123819
2908.12793,0.0589910820
2906.84229,0.0592734255
2905.55664,0.0594873540
2904.27100,0.0595389791
2902.98535,0.0593723357
2901.69971,0.0590379685
2900.41406,0.0586663932
2899.12842,0.0583736897
2897.84277,0.0582160763
2896.55713,0.0582168959
2895.27148,0.0583820678
2893.98584,0.0586672239
2892.70020,0.0589601807
2891.41455,0.0591360107
2890.12891,0.0591474660
2888.84326,0.0590532646
2887.55762,0.0589518771
2886.27197,0.0588884614
2884.98633,0.0588289127
2883.70068,0.0587193742
2882.41504,0.0585554726
2881.12939,0.0583891757
2879.84375,0.0582696535
2878.55811,0.0581927858
2877.27246,0.0581150353
2875.98682,0.0580180734
2874.70117,0.0579405911
2873.41553,0.0579276346
2872.12988,0.0579559132
2870.84424,0.0579465963
2869.55859,0.0578598790
2868.27295,0.0577343442
2866.98730,0.0576138757
2865.70166,0.0574800000
2864.41602,0.0572973378
2863.13037,0.0570919327
2861.84473,0.0569244176
2860.55908,0.0568002239
2859.27344,0.0566569827
2857.98779,0.0564495213
2856.70215,0.0562034920
2855.41650,0.0559746027
2854.13086,0.0557902232
2852.84521,0.0556696132
2851.55957,0.0556835011
2850.27393,0.0559208356
2848.98828,0.0563671291
2847.70264,0.0568639226
2846.41699,0.0572452992
2845.13135,0.0574731156
2843.84570,0.0575952902
2842.56006,0.0576245226
2841.27441,0.0575319231
2839.98877,0.0573342629
2838.70313,0.0571203344
2837.41748,0.0569827966
2836.13184,0.0569531955
2834.84619,0.0569959320
2833.56055,0.0570473820
2832.27490,0.0570724793
2830.98926,0.0570923723
2829.70361,0.0571398772
2828.41797,0.0571917295
2827.13232,0.0571715906
2825.84668,0.0570328012
2824.56104,0.0568194315
2823.27539,0.0566333868
2821.98975,0.0565400571
2820.70410,0.0565090440
2819.41846,0.0564453341
2818.13281,0.0562717654
2816.84717,0.0559824966
2815.56152,0.0556426011
2814.27588,0.0553586595
2812.99023,0.0552209131
2811.70459,0.0552264452
2810.41895,0.0552678071
2809.13330,0.0552379414
2807.84766,0.0551359989
2806.56201,0.0550238937
2805.27637,0.0549070835
2803.99072,0.0547204204
2802.70508,0.0544334427
2801.41943,0.0541045517
2800.13379,0.0538170412
2798.84814,0.0536045767
2797.56250,0.0534459576
2796.27686,0.0533031151
2794.99121,0.0531582423
2793.70557,0.0530391559
2792.41992,0.0529970936
2791.13428,0.0530358218
2789.84863,0.0530727059
2788.56299,0.0530043803
2787.27734,0.0528097600
2785.99170,0.0525635406
2784.70605,0.0523619391
2783.42041,0.0522548631
2782.13477,0.0522289984
2780.84912,0.0522141084
2779.56348,0.0521188602
2778.27783,0.0519069918
2776.99219,0.0516481884
2775.70654,0.0514618717
2774.42090,0.0513958409
2773.13525,0.0513868667
2771.84961,0.0513517261
2770.56396,0.0512898192
2769.27832,0.0512737408
2767.99268,0.0513480008
2766.70703,0.0514686033
2765.42139,0.0515389331
2764.13574,0.0514911339
2762.85010,0.0513346270
2761.56445,0.0511502475
2760.27881,0.0510456264
2758.99316,0.0510907546
2757.70752,0.0512609519
2756.42188,0.0514348298
2755.13623,0.0514706448
2753.85059,0.0513266735
2752.56494,0.0511138476
2751.27930,0.0509998016
2749.99365,0.0510456562
2748.70801,0.0511611924
2747.42236,0.0512302518
2746.13672,0.0512393676
2744.85107,0.0512507558
2743.56543,0.0513010919
2742.27979,0.0513738394
2740.99414,0.0514490195
2739.70850,0.0515247062
2738.42285,0.0515979640
2737.13721,0.0516594164
2735.85156,0.0517165661
2734.56592,0.0517908074
2733.28027,0.0518799461
2731.99463,0.0519342683
2730.70898,0.0518917590
2729.42334,0.0517455488
2728.13770,0.0515651107
2726.85205,0.0514314175
2725.56641,0.0513610207
2724.28076,0.0513084084
2722.99512,0.0512377955
2721.70947,0.0511644594
2720.42383,0.0511244163
2719.13818,0.0511272438
2717.85254,0.0511473343
2716.56689,0.0511516146
2715.28125,0.0511308834
2713.99561,0.0511131212
2712.70996,0.0511429720
2711.42432,0.0512319990
2710.13867,0.0513239913
2708.85303,0.0513378605
2707.56738,0.0512549244
2706.28174,0.0511399433
2704.99609,0.0510593690
2703.71045,0.0510147102
2702.42480,0.0509803295
2701.13916,0.0509620160
2699.85352,0.0509823970
2698.56787,0.0510417260
2697.28223,0.0511255823
2695.99658,0.0512165055
2694.71094,0.0512762479
2693.42529,0.0512695424
2692.13965,0.0512312986
2690.85400,0.0512523875
2689.56836,0.0513660312
2688.28271,0.0515066944
2686.99707,0.0516136736
2685.71143,0.0517104119
2684.42578,0.0518391393
2683.14014,0.0519699790
2681.85449,0.0520351902
2680.56885,0.0520312525
2679.28320,0.0520441756
2677.99756,0.0521685109
2676.71191,0.0524139218
2675.42627,0.0526933968
2674.14063,0.0529043116
2672.85498,0.0530145541
2671.56934,0.0530617051
2670.28369,0.0530882068
2668.99805,0.0531162918
2667.71240,0.0531779341
2666.42676,0.0533073619
2665.14111,0.0534847789
2663.85547,0.0536386669
2662.56982,0.0537369996
2661.28418,0.0538401864
2659.99854,0.0540268011
2658.71289,0.0542969592
2657.42725,0.0545803271
2656.14160,0.0548183210
2654.85596,0.0550040342
2653.57031,0.0551607236
2652.28467,0.0553097352
2650.99902,0.0554508194
2649.71338,0.0555546358
2648.42773,0.0555893108
2647.14209,0.0555743165
2645.85645,0.0555903465
2644.57080,0.0557110459
2643.28516,0.0559284948
2641.99951,0.0561615452
2640.71387,0.0563305616
2639.42822,0.0564131700
2638.14258,0.0564435907
2636.85693,0.0564777032
2635.57129,0.0565471016
2634.28564,0.0566287860
2633.00000,0.0566665418
2631.71436,0.0566473417
2630.42871,0.0566418208
2629.14307,0.0567442365
2627.85742,0.0569676869
2626.57178,0.0572287329
2625.28613,0.0574295111
2624.00049,0.0575356446
2622.71484,0.0575716421
2621.42920,0.0575732701
2620.14355,0.0575524122
2618.85791,0.0574905500
2617.57227,0.0573675521
2616.28662,0.0572063737
2615.00098,0.0570870861
2613.71533,0.0570913702
2612.42969,0.0572221763
2611.14404,0.0573851615
2609.85840,0.0574647225
2608.57275,0.0574252531
2607.28711,0.0573323071
2606.00146,0.0572716184
2604.71582,0.0572622791
2603.43018,0.0572666824
2602.14453,0.0572626032
2600.85889,0.0572596863
2599.57324,0.0572433844
2598.28760,0.0571557581
2597.00195,0.0569675937
2595.71631,0.0567400120
2594.43066,0.0565762632
2593.14502,0.0565142035
2591.85938,0.0565000735
2590.57373,0.0564631671
2589.28809,0.0563819893
2588.00244,0.0562737100
2586.71680,0.0561639890
2585.43115,0.0560907349
2584.14551,0.0560971200
2582.85986,0.0561828762
2581.57422,0.0562754497
2580.28857,0.0562809892
2579.00293,0.0561606064
2577.71729,0.0559476018
2576.43164,0.0557163768
2575.14600,0.0555410646
2573.86035,0.0554670878
2572.57471,0.0554989427
2571.28906,0.0556082577
2570.00342,0.0557387955
2568.71777,0.0558066405
2567.43213,0.0557418019
2566.14648,0.0555561222
2564.86084,0.0553491637
2563.57520,0.0552199222
2562.28955,0.0551949628
2561.00391,0.0552442633
2559.71826,0.0553200170
2558.43262,0.0553693622
2557.14697,0.0553558432
2555.86133,0.0552940592
2554.57568,0.0552270599
2553.29004,0.0551582500
2552.00439,0.0550503768
2550.71875,0.0548942462
2549.43311,0.0547304638
2548.14746,0.0545869581
2546.86182,0.0544430986
2545.57617,0.0542722680
2544.29053,0.0540889539
2543.00488,0.0539324433
2541.71924,0.0538231656
2540.43359,0.0537359752
2539.14795,0.0536123961
2537.86230,0.0534127615
2536.57666,0.0531631224
2535.29102,0.0529345758
2534.00537,0.0527669340
2532.71973,0.0526336394
2531.43408,0.0524846092
2530.14844,0.0522950627
2528.86279,0.0520630032
2527.57715,0.0517873690
2526.29150,0.0514690429
2525.00586,0.0511245653
2523.72021,0.0507836975
2522.43457,0.0504727997
2521.14893,0.0501988977
2519.86328,0.0499532819
2518.57764,0.0497312620
2517.29199,0.0495443419
2516.00635,0.0493998453
2514.72070,0.0492787100
2513.43506,0.0491408519
2512.14941,0.0489588529
2510.86377,0.0487403236
2509.57813,0.0485174134
2508.29248,0.0483158827
2507.00684,0.0481332727
2505.72119,0.0479425862
2504.43555,0.0477141067
2503.14990,0.0474347286
2501.86426,0.0471166261
2500.57861,0.0467981547
2499.29297,0.0465227067
2498.00732,0.0463032052
2496.72168,0.0461165458
2495.43604,0.0459419936
2494.15039,0.0457879901
2492.86475,0.0456618480
2491.57910,0.0455321819
2490.29346,0.0453450754
2489.00781,0.0450773202
2487.72217,0.0447549447
2486.43652,0.0444246978
2485.15088,0.0441246107
2483.86523,0.0438822061
2482.57959,0.0437158793
2481.29395,0.0436128043
2480.00830,0.0435103811
2478.72266,0.0433341563
2477.43701,0.0430629253
2476.15137,0.0427444391
2474.86572,0.0424430594
2473.58008,0.0421878994
2472.29443,0.0419679247
2471.00879,0.0417557880
2469.72314,0.0415331312
2468.43750,0.0413016193
2467.15186,0.0410722792
2465.86621,0.0408533029
2464.58057,0.0406621471
2463.29492,0.0405248366
2462.00928,0.0404322632
2460.72363,0.0403172709
2459.43799,0.0401167236
2458.15234,0.0398432612
2456.86670,0.0395578071
2455.58105,0.0392910726
2454.29541,0.0390267409
2453.00977,0.0387544744
2451.72412,0.0385043547
2450.43848,0.0383250862
2449.15283,0.0382330678
2447.86719,0.0381777510
2446.58154,0.0380749926
2445.29590,0.0378915817
2444.01025,0.0376724750
2442.72461,0.0374710597
2441.43896,0.0372894555
2440.15332,0.0371147804
2438.86768,0.0369678214
2437.58203,0.0368657671
2436.29639,0.0367697440
2435.01074,0.0366234668
2433.72510,0.0364287309
2432.43945,0.0362397134
2431.15381,0.0360869728
2429.86816,0.0359515287
2428.58252,0.0358119905
2427.29688,0.0356756188
2426.01123,0.0355549306
2424.72559,0.0354484692
2423.43994,0.0353571661
2422.15430,0.0352853984
2420.86865,0.0352112800
2419.58301,0.0350886770
2418.29736,0.0348963998
2417.01172,0.0346584134
2415.72607,0.0344082601
2414.44043,0.0341623984
2413.15479,0.0339319222
2411.86914,0.0337303877
2410.58350,0.0335608013
2409.29785,0.0334149562
2408.01221,0.0332817659
2406.72656,0.0331458747
2405.44092,0.0329965688
2404.15527,0.0328506380
2402.86963,0.0327458940
2401.58398,0.0326929428
2400.29834,0.0326517187
2399.01270,0.0325666964
2397.72705,0.0324106999
2396.44141,0.0321923904
2395.15576,0.0319423154
2393.87012,0.0317021273
2392.58447,0.0315133743
2391.29883,0.0314048938
2390.01318,0.0313876383
2388.72754,0.0314609930
2387.44189,0.0316360295
2386.15625,0.0319559649
2384.87061,0.0324821621
2383.58496,0.0332547091
2382.29932,0.0342758857
2381.01367,0.0355347358
2379.72803,0.0370234028
2378.44238,0.0387187265
2377.15674,0.0405753069
2375.87109,0.0425655283
2374.58545,0.0447078310
2373.29980,0.0470249169
2372.01416,0.0494835004
2370.72852,0.0520007908
2369.44287,0.0544989146
2368.15723,0.0569420382
2366.87158,0.0593237281
2365.58594,0.0616173409
2364.30029,0.0637260601
2363.01465,0.0655001029
2361.72900,0.0668188408
2360.44336,0.0676290318
2359.15771,0.0678565204
2357.87207,0.0672870055
2356.58643,0.0656829327
2355.30078,0.0631025881
2354.01514,0.0599023588
2352.72949,0.0564467162
2351.44385,0.0530855134
2350.15820,0.0502934940
2348.87256,0.0485501215
2347.58691,0.0481604896
2346.30127,0.0491753221
2345.01563,0.0512358434
2343.72998,0.0534468070
2342.44434,0.0548175573
2341.15869,0.0550070293
2339.87305,0.0543358587
2338.58740,0.0533357784
2337.30176,0.0524333157
2336.01611,0.0517870486
2334.73047,0.0513458699
2333.44482,0.0510287955
2332.15918,0.0507622324
2330.87354,0.0504286923
2329.58789,0.0499277264
2328.30225,0.0492579751
2327.01660,0.0484522916
2325.73096,0.0475083552
2324.44531,0.0464599803
2323.15967,0.0454305112
2321.87402,0.0445095785
2320.58838,0.0436051041
2319.30273,0.0425195061
2318.01709,0.0412021093
2316.73145,0.0398568511
2315.44580,0.0387690514
2314.16016,0.0380476974
2312.87451,0.0375385918
2311.58887,0.0369776301
2310.30322,0.0362169780
2309.01758,0.0352875590
2307.73193,0.0342886001
2306.44629,0.0332899243
2305.16064,0.0323438458
2303.87500,0.0315090306
2302.58936,0.0308106579
2301.30371,0.0301945917
2300.01807,0.0295719728
2298.73242,0.0289174039
2297.44678,0.0282937661
2296.16113,0.0277668796
2294.87549,0.0273277555
2293.58984,0.0269202609
2292.30420,0.0265106373
2291.01855,0.0260970891
2289.73291,0.0256753601
2288.44727,0.0252425205
2287.16162,0.0248260628
2285.87598,0.0244662520
2284.59033,0.0241664220
2283.30469,0.0238983873
2282.01904,0.0236666296
2280.73340,0.0235298611
2279.44775,0.0235378146
2278.16211,0.0236649886
2276.87646,0.0238275025
2275.59082,0.0239475686
2274.30518,0.0239852630
2273.01953,0.0239322223
2271.73389,0.0238103289
2270.44824,0.0236775894
2269.16260,0.0235994719
2267.87695,0.0235942248
2266.59131,0.0236080252
2265.30566,0.0235631205
2264.02002,0.0234367680
2262.73438,0.0232850257
2261.44873,0.0231788792
2260.16309,0.0231263749
2258.87744,0.0230745301
2257.59180,0.0229752846
2256.30615,0.0228241663
2255.02051,0.0226444080
2253.73486,0.0224650819
2252.44922,0.0223177932
2251.16357,0.0222240333
2249.87793,0.0221755914
2248.59229,0.0221445672
2247.30664,0.0221175179
2246.02100,0.0221043322
2244.73535,0.0221063495
2243.44971,0.0220883731
2242.16406,0.0219996180
2240.87842,0.0218281504
2239.59277,0.0216246191
2238.30713,0.0214636065
2237.02148,0.0213755220
2235.73584,0.0213245414
2234.45020,0.0212558936
2233.16455,0.0211588293
2231.87891,0.0210756175
2230.59326,0.0210477114
2229.30762,0.0210626572
2228.02197,0.0210579559
2226.73633,0.0209833197
2225.45068,0.0208555982
2224.16504,0.0207464583
2222.87939,0.0207098871
2221.59375,0.0207264740
2220.30811,0.0207280479
2219.02246,0.0206752699
2217.73682,0.0205979589
2216.45117,0.0205527134
2215.16553,0.0205574892
2213.87988,0.0205853656
2212.59424,0.0206117481
2211.30859,0.0206362866
2210.02295,0.0206577331
2208.73730,0.0206588730
2207.45166,0.0206334908
2206.16602,0.0206089523
2204.88037,0.0206144378
2203.59473,0.0206365585
2202.30908,0.0206309110
2201.02344,0.0205808040
2199.73779,0.0205202550
2198.45215,0.0204888843
2197.16650,0.0204822905
2195.88086,0.0204590075
2194.59521,0.0203841217
2193.30957,0.0202586371
2192.02393,0.0201166216
2190.73828,0.0200024359
2189.45264,0.0199392848
2188.16699,0.0199126434
2186.88135,0.0198912080
2185.59570,0.0198693406
2184.31006,0.0198754631
2183.02441,0.0199396089
2181.73877,0.0200561937
2180.45313,0.0201829746
2179.16748,0.0202700291
2177.88184,0.0202858429
2176.59619,0.0202293750
2175.31055,0.0201343261
2174.02490,0.0200566798
2172.73926,0.0200380292
2171.45361,0.0200696383
2170.16797,0.0201062113
2168.88232,0.0201162696
2167.59668,0.0201028492
2166.31104,0.0200807806
2165.02539,0.0200661141
2163.73975,0.0200891327
2162.45410,0.0201778766
2161.16846,0.0203174148
2159.88281,0.0204566456
2158.59717,0.0205623228
2157.31152,0.0206447560
2156.02588,0.0207277779
2154.74023,0.0208162479
2153.45459,0.0208957940
2152.16895,0.0209424645
2150.88330,0.0209388770
2149.59766,0.0209008493
2148.31201,0.0208883807
2147.02637,0.0209707152
2145.74072,0.0211619288
2144.45508,0.0213902872
2143.16943,0.0215436835
2141.88379,0.0215619095
2140.59814,0.0214883573
2139.31250,0.0214267541
2138.02686,0.0214464441
2136.74121,0.0215317141
2135.45557,0.0216175169
2134.16992,0.0216636639
2132.88428,0.0216909535
2131.59863,0.0217469055
2130.31299,0.0218434744
2129.02734,0.0219397675
2127.74170,0.0219918843
2126.45605,0.0220064800
2125.17041,0.0220291372
2123.88477,0.0220879652
2122.59912,0.0221663844
2121.31348,0.0222370550
2120.02783,0.0222993158
2118.74219,0.0223677456
2117.45654,0.0224367063
2116.17090,0.0224862359
2114.88525,0.0225298032
2113.59961,0.0226219390
2112.31396,0.0227956846
2111.02832,0.0230164435
2109.74268,0.0232179537
2108.45703,0.0233676508
2107.17139,0.0234805923
2105.88574,0.0235896036
2104.60010,0.0237184614
2103.31445,0.0238701906
2102.02881,0.0240283217
2100.74316,0.0241750702
2099.45752,0.0243080985
2098.17188,0.0244287364
2096.88623,0.0245262608
2095.60059,0.0245962180
2094.31494,0.0246632565
2093.02930,0.0247625895
2091.74365,0.0249021035
2090.45801,0.0250618141
2089.17236,0.0252215061
2087.88672,0.0253708530
2086.60107,0.0254970826
2085.31543,0.0255861450
2084.02979,0.0256389193
2082.74414,0.0256768968
2081.45850,0.0257343259
2080.17285,0.0258448925
2078.88721,0.0260171834
2077.60156,0.0262137111
2076.31592,0.0263724774
2075.03027,0.0264714845
2073.74463,0.0265493542
2072.45898,0.0266433917
2071.17334,0.0267341472
2069.88770,0.0267892089
2068.60205,0.0268400405
2067.31641,0.0269644931
2066.03076,0.0271936916
2064.74512,0.0274693128
2063.45947,0.0277015660
2062.17383,0.0278480444
2060.88818,0.0279343035
2059.60254,0.0280221496
2058.31689,0.0281605627
2057.03125,0.0283417068
2055.74561,0.0285024941
2054.45996,0.0285873674
2053.17432,0.0286131334
2051.88867,0.0286530051
2050.60303,0.0287541375
2049.31738,0.0288926978
2048.03174,0.0290218089
2046.74609,0.0291384757
2045.46045,0.0292811729
2044.17480,0.0294670202
2042.88916,0.0296556391
2041.60352,0.0297858398
2040.31787,0.0298398174
2039.03223,0.0298669916
2037.74658,0.0299367085
2036.46094,0.0300677959
2035.17529,0.0302123260
2033.88965,0.0303138215
2032.60400,0.0303735305
2031.31836,0.0304438304
2030.03271,0.0305608492
2028.74707,0.0307043772
2027.46143,0.0308266655
2026.17578,0.0309079308
2024.89014,0.0309727266
2023.60449,0.0310560223
2022.31885,0.0311610531
2021.03320,0.0312648602
2019.74756,0.0313622914
2018.46191,0.0314779133
2017.17627,0.0316187702
2015.89063,0.0317404196
2014.60498,0.0317954533
2013.31934,0.0317974836
2012.03369,0.0318027809
2010.74805,0.0318430252
2009.46240,0.0318992436
2008.17676,0.0319339558
2006.89111,0.0319342650
2005.60547,0.0319248438
2004.31982,0.0319422036
2003.03418,0.0319946967
2001.74854,0.0320519395
2000.46289,0.0320880264
1999.17725,0.0321240388
1997.89160,0.0322061889
1996.60596,0.0323505104
1995.32031,0.0325276405
1994.03467,0.0326954573
1992.74902,0.0328208730
1991.46338,0.0328788906
1990.17773,0.0328644849
1988.89209,0.0328004137
1987.60645,0.0327115059
1986.32080,0.0326040313
1985.03516,0.0324873514
1983.74951,0.0323995426
1982.46387,0.0323849842
1981.17822,0.0324459560
1979.89258,0.0325389057
1978.60693,0.0326179564
1977.32129,0.0326645896
1976.03564,0.0326767825
1974.75000,0.0326573290
1973.46436,0.0326163098
1972.17871,0.0325634331
1970.89307,0.0324989855
1969.60742,0.0324296393
1968.32178,0.0323841758
1967.03613,0.0323804356
1965.75049,0.0323846228
1964.46484,0.0323453546
1963.17920,0.0322642662
1961.89355,0.0321907476
1960.60791,0.0321579613
1959.32227,0.0321577936
1958.03662,0.0321627259
1956.75098,0.0321400948
1955.46533,0.0320576504
1954.17969,0.0319158509
1952.89404,0.0317750648
1951.60840,0.0317106247
1950.32275,0.0317366607
1949.03711,0.0317979343
1947.75146,0.0318379588
1946.46582,0.0318530835
1945.18018,0.0318741165
1943.89453,0.0319108889
1942.60889,0.0319259912
1941.32324,0.0318732522
1940.03760,0.0317522027
1938.75195,0.0316004455
1937.46631,0.0314434096
1936.18066,0.0312846676
1934.89502,0.0311302692
1933.60938,0.0309975259
1932.32373,0.0309000649
1931.03809,0.0308356117
1929.75244,0.0307884570
1928.46680,0.0307432190
1927.18115,0.0307034608
1925.89551,0.0306935702
1924.60986,0.0307188798
1923.32422,0.0307177994
1922.03857,0.0306015667
1920.75293,0.0303671174
1919.46729,0.0301098544
1918.18164,0.0299121663
1916.89600,0.0297802631
1915.61035,0.0296870675
1914.32471,0.0296276174
1913.03906,0.0296032336
1911.75342,0.0295929499
1910.46777,0.0295608342
1909.18213,0.0294777695
1907.89648,0.0293364488
1906.61084,0.0291578528
1905.32520,0.0289723277
1904.03955,0.0287888180
1902.75391,0.0285992529
1901.46826,0.0284123905
1900.18262,0.0282635689
1898.89697,0.0281804744
1897.61133,0.0281555336
1896.32568,0.0281512011
1895.04004,0.0281182490
1893.75439,0.0280290004
1892.46875,0.0279035512
1891.18311,0.0277862772
1889.89746,0.0276968740
1888.61182,0.0276197959
1887.32617,0.0275380369
1886.04053,0.0274521615
1884.75488,0.0273597632
1883.46924,0.0272502210
1882.18359,0.0271193199
1880.89795,0.0269706938
1879.61230,0.0268052891
1878.32666,0.0266274307
1877.04102,0.0264566280
1875.75537,0.0263148285
1874.46973,0.0262082685
1873.18408,0.0261378288
1871.89844,0.0261294171
1870.61279,0.0262297429
1869.32715,0.0264340695
1868.04150,0.0266001541
1866.75586,0.0265456121
1865.47021,0.0262774806
1864.18457,0.0259522162
1862.89893,0.0256847795
1861.61328,0.0254894253
1860.32764,0.0253200307
1859.04199,0.0251364969
1857.75635,0.0249500498
1856.47070,0.0248051248
1855.18506,0.0247220024
1853.89941,0.0246777236
1852.61377,0.0246462710
1851.32813,0.0246310662
1850.04248,0.0246422440
1848.75684,0.0246674232
1847.47119,0.0246878359
1846.18555,0.0247111786
1844.89990,0.0247499272
1843.61426,0.0247615222
1842.32861,0.0246786270
1841.04297,0.0245271344
1839.75732,0.0244037360
1838.47168,0.0243565850
1837.18604,0.0243338328
1835.90039,0.0242411420
1834.61475,0.0240715221
1833.32910,0.0239316747
1832.04346,0.0239286665
1830.75781,0.0240670368
1829.47217,0.0242258403
1828.18652,0.0242617801
1826.90088,0.0241668057
1825.61523,0.0240261052
1824.32959,0.0238826610
1823.04395,0.0237263888
1821.75830,0.0235643778
1820.47266,0.0234364960
1819.18701,0.0233671051
1817.90137,0.0233416464
1816.61572,0.0233308300
1815.33008,0.0233157519
1814.04443,0.0232959520
1812.75879,0.0232914425
1811.47314,0.0233250931
1810.18750,0.0233770758
1808.90186,0.0233918820
1807.61621,0.0233557690
1806.33057,0.0233143046
1805.04492,0.0233074222
1803.75928,0.0233415104
1802.47363,0.0234105401
1801.18799,0.0235079471
1799.90234,0.0236258712
1798.61670,0.0237647202
1797.33105,0.0239256844
1796.04541,0.0241005011
1794.75977,0.0243039094
1793.47412,0.0245822743
1792.18848,0.0249172617
1790.90283,0.0251511447
1789.61719,0.0251947325
1788.33154,0.0251859799
1787.04590,0.0253126472
1785.76025,0.0256673954
1784.47461,0.0262140390
1783.18896,0.0268301815
1781.90332,0.0274403859
1780.61768,0.0280738156
1779.33203,0.0287670512
1778.04639,0.0294977184
1776.76074,0.0302604493
1775.47510,0.0311316047
1774.18945,0.0322404541
1772.90381,0.0337064713
1771.61816,0.0354911052
1770.33252,0.0373325869
1769.04688,0.0390800983
1767.76123,0.0408343896
1766.47559,0.0426656716
1765.18994,0.0445618965
1763.90430,0.0466843173
1762.61865,0.0493958704
1761.33301,0.0527831018
1760.04736,0.0563606210
1758.76172,0.0598327443
1757.47607,0.0635486320
1756.19043,0.0677256510
1754.90479,0.0720008612
1753.61914,0.0761441961
1752.33350,0.0806088373
1751.04785,0.0861173347
1749.76221,0.0928260162
1748.47656,0.0998460874
1747.19092,0.1061995924
1745.90527,0.1118696481
1744.61963,0.1173250973
1743.33398,0.1228253469
1742.04834,0.1284482777
1740.76270,0.1343596578
1739.47705,0.1404571384
1738.19141,0.1459733099
1736.90576,0.1504281610
1735.62012,0.1545933783
1734.33447,0.1598837972
1733.04883,0.1662897021
1731.76318,0.1716537625
1730.47754,0.1751985401
1729.19189,0.1778795421
1727.90625,0.1802362204
1726.62061,0.1822734475
1725.33496,0.1840021312
1724.04932,0.1854720712
1722.76367,0.1866088510
1721.47803,0.1872921884
1720.19238,0.1875251532
1718.90674,0.1874220967
1717.62109,0.1869874448
1716.33545,0.1858060807
1715.04980,0.1835361272
1713.76416,0.1806133538
1712.47852,0.1774841398
1711.19287,0.1741880029
1709.90723,0.1707340777
1708.62158,0.1672421098
1707.33594,0.1636556834
1706.05029,0.1596702486
1704.76465,0.1553024650
1703.47900,0.1510503739
1702.19336,0.1469825357
1700.90771,0.1424808949
1699.62207,0.1372885406
1698.33643,0.1322364658
1697.05078,0.1275641322
1695.76514,0.1223472357
1694.47949,0.1166582927
1693.19385,0.1116216704
1691.90820,0.1075144857
1690.62256,0.1037459075
1689.33691,0.0999128148
1688.05127,0.0962468535
1686.76563,0.0931163654
1685.47998,0.0903061181
1684.19434,0.0870588198
1682.90869,0.0832121745
1681.62305,0.0797475651
1680.33740,0.0770334899
1679.05176,0.0747988671
1677.76611,0.0728761107
1676.48047,0.0711198524
1675.19482,0.0693014711
1673.90918,0.0674157813
1672.62354,0.0657845736
1671.33789,0.0644759461
1670.05225,0.0630757734
1668.76660,0.0613086075
1667.48096,0.0596315898
1666.19531,0.0585097112
1664.90967,0.0578433089
1663.62402,0.0574092939
1662.33838,0.0570994318
1661.05273,0.0568392277
1659.76709,0.0565658584
1658.48145,0.0562969334
1657.19580,0.0561029240
1655.91016,0.0560726151
1654.62451,0.0563332662
1653.33887,0.0569232441
1652.05322,0.0573374294
1650.76758,0.0572278388
1649.48193,0.0570743047
1648.19629,0.0572718196
1646.91064,0.0579515733
1645.62500,0.0587651022
1644.33936,0.0591030307
1643.05371,0.0589676611
1641.76807,0.0587224811
1640.48242,0.0585788414
1639.19678,0.0585268289
1637.91113,0.0585231222
1636.62549,0.0587429889
1635.33984,0.0594196767
1634.05420,0.0601715930
1632.76855,0.0604880936
1631.48291,0.0604491495
1630.19727,0.0602351688
1628.91162,0.0598614141
1627.62598,0.0593127795
1626.34033,0.0587067194
1625.05469,0.0582183786
1623.76904,0.0578706674
1622.48340,0.0574755743
1621.19775,0.0568742827
1619.91211,0.0561537072
1618.62646,0.0554435663
1617.34082,0.0546415001
1616.05518,0.0534218065
1614.76953,0.0517378822
1613.48389,0.0499641411
1612.19824,0.0483914055
1610.91260,0.0471093282
1609.62695,0.0460383110
1608.34131,0.0449410789
1607.05566,0.0436371304
1605.77002,0.0422029309
1604.48438,0.0408299826
1603.19873,0.0396094136
1601.91309,0.0385128707
1600.62744,0.0374671072
1599.34180,0.0364087150
1598.05615,0.0353332981
1596.77051,0.0343122445
1595.48486,0.0334025472
1594.19922,0.0325354189
1592.91357,0.0315797925
1591.62793,0.0305421036
1590.34229,0.0295965243
1589.05664,0.0288882144
1587.77100,0.0283615179
1586.48535,0.0278237835
1585.19971,0.0271464307
1583.91406,0.0263579004
1582.62842,0.0255792532
1581.34277,0.0249282010
1580.05713,0.0244722757
1578.77148,0.0242108405
1577.48584,0.0240402501
1576.20020,0.0237342622
1574.91455,0.0231780037
1573.62891,0.0225993320
1572.34326,0.0221838467
1571.05762,0.0218653362
1569.77197,0.0214506071
1568.48633,0.0208211336
1567.20068,0.0201031473
1565.91504,0.0194801446
1564.62939,0.0190182198
1563.34375,0.0187325329
1562.05811,0.0186571609
1560.77246,0.0188778806
1559.48682,0.0194503926
1558.20117,0.0198824275
1556.91553,0.0194725115
1555.62988,0.0186681300
1554.34424,0.0179151949
1553.05859,0.0172841437
1551.77295,0.0167777818
1550.48730,0.0163818579
1549.20166,0.0160692353
1547.91602,0.0158468261
1546.63037,0.0157699659
1545.34473,0.0158992875
1544.05908,0.0162519887
1542.77344,0.0167702213
1541.48779,0.0172589850
1540.20215,0.0172323454
1538.91650,0.0164427757
1537.63086,0.0155713176
1536.34521,0.0150750140
1535.05957,0.0148781585
1533.77393,0.0147382924
1532.48828,0.0144376885
1531.20264,0.0140331723
1529.91699,0.0137629015
1528.63135,0.0137274973
1527.34570,0.0138495341
1526.06006,0.0139609370
1524.77441,0.0139774578
1523.48877,0.0140050193
1522.20313,0.0141570037
1520.91748,0.0143231405
1519.63184,0.0143067949
1518.34619,0.0141431773
1517.06055,0.0139403548
1515.77490,0.0136696324
1514.48926,0.0132956691
1513.20361,0.0129254665
1511.91797,0.0127227036
1510.63232,0.0127983596
1509.34668,0.0132095739
1508.06104,0.0139491474
1506.77539,0.0145926084
1505.48975,0.0143454541
1504.20410,0.0135022243
1502.91846,0.0127364844
1501.63281,0.0122531541
1500.34717,0.0120969368
1499.06152,0.0122692911
1497.77588,0.0126426648
1496.49023,0.0129297329
1495.20459,0.0129501084
1493.91895,0.0128369648
1492.63330,0.0128046516
1491.34766,0.0129652033
1490.06201,0.0133041823
1488.77637,0.0136513086
1487.49072,0.0138095012
1486.20508,0.0137821119
1484.91943,0.0136933560
1483.63379,0.0136476476
1482.34814,0.0137064988
1481.06250,0.0138812829
1479.77686,0.0141547313
1478.49121,0.0145224230
1477.20557,0.0149870375
1475.91992,0.0155294910
1474.63428,0.0161484610
1473.34863,0.0168669280
1472.06299,0.0175413061
1470.77734,0.0179076958
1469.49170,0.0180365779
1468.20605,0.0182485059
1466.92041,0.0187947527
1465.63477,0.0197461974
1464.34912,0.0209017992
1463.06348,0.0219186116
1461.77783,0.0227167103
1460.49219,0.0235204622
1459.20654,0.0247020833
1457.92090,0.0266987737
1456.63525,0.0293267537
1455.34961,0.0313607566
1454.06396,0.0325116813
1452.77832,0.0334675461
1451.49268,0.0346758813
1450.20703,0.0362667553
1448.92139,0.0382124037
1447.63574,0.0403508395
1446.35010,0.0423928536
1445.06445,0.0441228338
1443.77881,0.0455662198
1442.49316,0.0468497947
1441.20752,0.0480293781
1439.92188,0.0491296090
1438.63623,0.0502704494
1437.35059,0.0516053662
1436.06494,0.0530087389
1434.77930,0.0540858731
1433.49365,0.0547957160
1432.20801,0.0554454997
1430.92236,0.0562144220
1429.63672,0.0570182800
1428.35107,0.0576865114
1427.06543,0.0582166947
1425.77979,0.0587500520
1424.49414,0.0593712702
1423.20850,0.0600416437
1421.92285,0.0607390516
1420.63721,0.0616227463
1419.35156,0.0629047975
1418.06592,0.0644154549
1416.78027,0.0656220093
1415.49463,0.0664106980
1414.20898,0.0670976266
1412.92334,0.0679207146
1411.63770,0.0689136758
1410.35205,0.0699946731
1409.06641,0.0710776895
1407.78076,0.0721549094
1406.49512,0.0732759982
1405.20947,0.0743936077
1403.92383,0.0752886832
1402.63818,0.0758176520
1401.35254,0.0761052966
1400.06689,0.0763472542
1398.78125,0.0765767619
1397.49561,0.0766617507
1396.20996,0.0764707103
1394.92432,0.0759847835
1393.63867,0.0752949342
1392.35303,0.0745508373
1391.06738,0.0738688707
1389.78174,0.0732907131
1388.49609,0.0727813616
1387.21045,0.0722200871
1385.92480,0.0715029761
1384.63916,0.0707065538
1383.35352,0.0700076222
1382.06787,0.0694965124
1380.78223,0.0691511333
1379.49658,0.0689196512
1378.21094,0.0688013509
1376.92529,0.0688561276
1375.63965,0.0691229925
1374.35400,0.0694973990
1373.06836,0.0697503686
1371.78271,0.0698070303
1370.49707,0.0698772594
1369.21143,0.0702069178
1367.92578,0.0708298460
1366.64014,0.0715825409
1365.35449,0.0723453388
1364.06885,0.0731759965
1362.78320,0.0741582438
1361.49756,0.0751955882
1360.21191,0.0760988370
1358.92627,0.0768549591
1357.64063,0.0776173025
1356.35498,0.0785252005
1355.06934,0.0796095133
1353.78369,0.0808046013
1352.49805,0.0820124596
1351.21240,0.0831527337
1349.92676,0.0841793939
1348.64111,0.0850972831
1347.35547,0.0859584138
1346.06982,0.0868119374
1344.78418,0.0876661241
1343.49854,0.0885191485
1342.21289,0.0894041434
1340.92725,0.0903666839
1339.64160,0.0913761854
1338.35596,0.0922823921
1337.07031,0.0929541960
1335.78467,0.0934404880
1334.49902,0.0938915759
1333.21338,0.0943914652
1331.92773,0.0949184820
1330.64209,0.0954277217
1329.35645,0.0959141180
1328.07080,0.0963829979
1326.78516,0.0968156904
1325.49951,0.0971979871
1324.21387,0.0975510329
1322.92822,0.0979157388
1321.64258,0.0983192846
1320.35693,0.0987459272
1319.07129,0.0991224721
1317.78564,0.0993642136
1316.50000,0.0994559601
1315.21436,0.0994574279
1313.92871,0.0994272903
1312.64307,0.0993795469
1311.35742,0.0992987156
1310.07178,0.0991727561
1308.78613,0.0990152285
1307.50049,0.0988667309
1306.21484,0.0987533703
1304.92920,0.0986478999
1303.64355,0.0984905362
1302.35791,0.0982419699
1301.07227,0.0979046151
1299.78662,0.0975140184
1298.50098,0.0971236750
1297.21533,0.0967766196
1295.92969,0.0964742005
1294.64404,0.0961800516
1293.35840,0.0958611742
1292.07275,0.0955193490
1290.78711,0.0951871946
1289.50146,0.0948967710
1288.21582,0.0946488976
1286.93018,0.0944184884
1285.64453,0.0941942483
1284.35889,0.0939974636
1283.07324,0.0938599184
1281.78760,0.0938065872
1280.50195,0.0938582197
1279.21631,0.0940221846
1277.93066,0.0942735448
1276.64502,0.0945709497
1275.35938,0.0949017256
1274.07373,0.0953011662
1272.78809,0.0958249345
1271.50244,0.0965153575
1270.21680,0.0973899961
1268.93115,0.0984501615
1267.64551,0.0996860415
1266.35986,0.1010695100
1265.07422,0.1025606617
1263.78857,0.1041486636
1262.50293,0.1058828235
1261.21729,0.1078393087
1259.93164,0.1100519449
1258.64600,0.1124935597
1257.36035,0.1151247770
1256.07471,0.1179399788
1254.78906,0.1209564582
1253.50342,0.1241759136
1252.21777,0.1275707483
1250.93213,0.1311060786
1249.64648,0.1347644031
1248.36084,0.1385360360
1247.07520,0.1423902810
1245.78955,0.1462662965
1244.50391,0.1500958502
1243.21826,0.1538179070
1241.93262,0.1573825181
1240.64697,0.1607687324
1239.36133,0.1640095711
1238.07568,0.1671734601
1236.79004,0.1703016013
1235.50439,0.1733545363
1234.21875,0.1762163341
1232.93311,0.1787556261
1231.64746,0.1809045523
1230.36182,0.1826894581
1229.07617,0.1841798574
1227.79053,0.1853991598
1226.50488,0.1862843782
1225.21924,0.1867390871
1223.93359,0.1867241263
1222.64795,0.1862859279
1221.36230,0.1854890138
1220.07666,0.1843439788
1218.79102,0.1828326732
1217.50537,0.1809891909
1216.21973,0.1789064109
1214.93408,0.1766542345
1213.64844,0.1742304116
1212.36279,0.1716121733
1211.07715,0.1688268334
1209.79150,0.1659483910
1208.50586,0.1630370617
1207.22021,0.1601048410
1205.93457,0.1571374238
1204.64893,0.1541352868
1203.36328,0.1511285603
1202.07764,0.1481533945
1200.79199,0.1452137083
1199.50635,0.1422660053
1198.22070,0.1392496228
1196.93506,0.1361418366
1195.64941,0.1329914033
1194.36377,0.1298952550
1193.07813,0.1269277185
1191.79248,0.1240818053
1190.50684,0.1212751791
1189.22119,0.1184211373
1187.93555,0.1154993400
1186.64990,0.1125582010
1185.36426,0.1096445099
1184.07861,0.1067242995
1182.79297,0.1036801711
1181.50732,0.1004082337
1180.22168,0.0969209746
1178.93604,0.0933385864
1177.65039,0.0897779241
1176.36475,0.0862815231
1175.07910,0.0828607306
1173.79346,0.0795661137
1172.50781,0.0764791146
1171.22217,0.0736623481
1169.93652,0.0711461678
1168.65088,0.0689377636
1167.36523,0.0670087934
1166.07959,0.0652977526
1164.79395,0.0637655705
1163.50830,0.0624477640
1162.22266,0.0614295006
1160.93701,0.0607723668
1159.65137,0.0604739934
1158.36572,0.0604816079
1157.08008,0.0607213117
1155.79443,0.0611266494
1154.50879,0.0616555326
1153.22314,0.0622853823
1151.93750,0.0629953742
1150.65186,0.0637678802
1149.36621,0.0645998716
1148.08057,0.0654872656
1146.79492,0.0663894042
1145.50928,0.0672355071
1144.22363,0.0679782331
1142.93799,0.0686208382
1141.65234,0.0691746846
1140.36670,0.0696181357
1139.08105,0.0699234456
1137.79541,0.0701093376
1136.50977,0.0702373385
1135.22412,0.0703554824
1133.93848,0.0704683065
1132.65283,0.0705593452
1131.36719,0.0706193745
1130.08154,0.0706345364
1128.79590,0.0705639720
1127.51025,0.0703539327
1126.22461,0.0699917153
1124.93896,0.0695298091
1123.65332,0.0690324381
1122.36768,0.0684918240
1121.08203,0.0678213909
1119.79639,0.0669437945
1118.51074,0.0658733696
1117.22510,0.0647072345
1115.93945,0.0635536313
1114.65381,0.0624827109
1113.36816,0.0615164973
1112.08252,0.0606293604
1110.79688,0.0597502142
1109.51123,0.0587969050
1108.22559,0.0577409379
1106.93994,0.0566430315
1105.65430,0.0556003191
1104.36865,0.0546580292
1103.08301,0.0537945107
1101.79736,0.0529900752
1100.51172,0.0522609949
1099.22607,0.0516113415
1097.94043,0.0510161631
1096.65479,0.0504900664
1095.36914,0.0501128659
1094.08350,0.0499355085
1092.79785,0.0499059781
1091.51221,0.0499488115
1090.22656,0.0500770770
1088.94092,0.0503719971
1087.65527,0.0508769117
1086.36963,0.0515586361
1085.08398,0.0523371734
1083.79834,0.0531071909
1082.51270,0.0537543744
1081.22705,0.0542138405
1079.94141,0.0545105375
1078.65576,0.0547064431
1077.37012,0.0548115410
1076.08447,0.0547836982
1074.79883,0.0546096489
1073.51318,0.0543561354
1072.22754,0.0541259870
1070.94189,0.0539855249
1069.65625,0.0539449044
1068.37061,0.0539987162
1067.08496,0.0541658327
1065.79932,0.0544731468
1064.51367,0.0548970662
1063.22803,0.0553451069
1061.94238,0.0557241477
1060.65674,0.0560138002
1059.37109,0.0562397987
1058.08545,0.0563848764
1056.79980,0.0563675463
1055.51416,0.0561218038
1054.22852,0.0556714311
1052.94287,0.0551119335
1051.65723,0.0545337200
1050.37158,0.0539730713
1049.08594,0.0534308776
1047.80029,0.0529203080
1046.51465,0.0524705872
1045.22900,0.0520796999
1043.94336,0.0516933240
1042.65771,0.0512632541
1041.37207,0.0508098342
1040.08643,0.0503929630
1038.80078,0.0500249080
1037.51514,0.0496412292
1036.22949,0.0491745993
1034.94385,0.0486416072
1033.65820,0.0481380150
1032.37256,0.0477421917
1031.08691,0.0474448279
1029.80127,0.0471880399
1028.51563,0.0469517373
1027.22998,0.0467641652
1025.94434,0.0466403924
1024.65869,0.0465547740
1023.37305,0.0464790277
1022.08740,0.0464089364
1020.80176,0.0463430323
1019.51611,0.0462677255
1018.23047,0.0461838506
1016.94482,0.0461337008
1015.65918,0.0461756438
1014.37354,0.0463214628
1013.08789,0.0465092734
1011.80225,0.0466518030
1010.51660,0.0467112064
1009.23096,0.0467209853
1007.94531,0.0467414446
1006.65967,0.0468101501
1005.37402,0.0469215699
1004.08838,0.0470331348
1002.80273,0.0470949002
1001.51709,0.0470911190
1000.23145,0.0470504165
998.94580,0.0470049232
997.66016,0.0469518229
996.37451,0.0468653366
995.08887,0.0467428304
993.80322,0.0466190055
992.51758,0.0465249829
991.23193,0.0464460663
989.94629,0.0463429727
988.66064,0.0462191775
987.37500,0.0461342782
986.08936,0.0461295284
984.80371,0.0461657718
983.51807,0.0461687632
982.23242,0.0461130366
980.94678,0.0460274592
979.66113,0.0459393486
978.37549,0.0458473638
977.08984,0.0457344912
975.80420,0.0455828942
974.51855,0.0453888737
973.23291,0.0451866910
971.94727,0.0450420305
970.66162,0.0449969471
969.37598,0.0450219586
968.09033,0.0450430661
966.80469,0.0450189114
965.51904,0.0449715927
964.23340,0.0449258909
962.94775,0.0448430516
961.66211,0.0446556136
960.37646,0.0443682708
959.09082,0.0440809987
957.80518,0.0438962691
956.51953,0.0438411422
955.23389,0.0438905694
953.94824,0.0440176874
952.66260,0.0441927537
951.37695,0.0443762727
950.09131,0.0445460342
948.80566,0.0447131656
947.52002,0.0448832102
946.23438,0.0450191125
944.94873,0.0450649150
943.66309,0.0449985303
942.37744,0.0448458940
941.09180,0.0446418971
939.80615,0.0443865061
938.52051,0.0440498292
937.23486,0.0436205603
935.94922,0.0431346186
934.66357,0.0426465347
933.37793,0.0421937183
932.09229,0.0417932943
930.80664,0.0414347611
929.52100,0.0410496891
928.23535,0.0405277349
926.94971,0.0398180410
925.66406,0.0390103124
924.37842,0.0382791758
923.09277,0.0377377830
921.80713,0.0373446904
920.52148,0.0369445644
919.23584,0.0364017636
917.95020,0.0357264280
916.66455,0.0350785740
915.37891,0.0346248262
914.09326,0.0343836881
912.80762,0.0342384912
911.52197,0.0341039822
910.23633,0.0340345204
908.95068,0.0341393203
907.66504,0.0344224386
906.37939,0.0347637609
905.09375,0.0350538753
903.80811,0.0352931470
902.52246,0.0355268382
901.23682,0.0357281975
899.95117,0.0357949510
