3999.64014,0.0065075536
3998.35449,0.0062250388
3997.06885,0.0060666953
3995.78320,0.0062366193
3994.49756,0.0065013790
3993.21191,0.0065337527
3991.92627,0.0062786643
3990.64063,0.0058943983
3989.35498,0.0055500860
3988.06934,0.0053737471
3986.78369,0.0054332698
3985.49805,0.0056866035
3984.21240,0.0060343831
3982.92676,0.0064253416
3981.64111,0.0068211486
3980.35547,0.0071042357
3979.06982,0.0071508121
3977.78418,0.0069711916
3976.49854,0.0067112991
3975.21289,0.0065369583
3973.92725,0.0065278136
3972.64160,0.0066129626
3971.35596,0.0066211368
3970.07031,0.0064761541
3968.78467,0.0063208449
3967.49902,0.0063514980
3966.21338,0.0065943017
3964.92773,0.0069396803
3963.64209,0.0073103677
3962.35645,0.0076593184
3961.07080,0.0078714341
3959.78516,0.0078477375
3958.49951,0.0076678819
3957.21387,0.0075328210
3955.92822,0.0075212847
3954.64258,0.0074894694
3953.35693,0.0072292392
3952.07129,0.0067276252
3950.78564,0.0062615410
3949.50000,0.0061836294
3948.21436,0.0065121790
3946.92871,0.0067996131
3945.64307,0.0066407183
3944.35742,0.0061837346
3943.07178,0.0059224227
3941.78613,0.0060840738
3940.50049,0.0063875383
3939.21484,0.0064744726
3937.92920,0.0063194269
3936.64355,0.0060771434
3935.35791,0.0058354675
3934.07227,0.0056544496
3932.78662,0.0056427536
3931.50098,0.0058492157
3930.21533,0.0061586853
3928.92969,0.0064513772
3927.64404,0.0067554144
3926.35840,0.0071196551
3925.07275,0.0074961851
3923.78711,0.0078024040
3922.50146,0.0079997974
3921.21582,0.0080791693
3919.93018,0.0080674086
3918.64453,0.0080774026
3917.35889,0.0082179355
3916.07324,0.0083985999
3914.78760,0.0083959866
3913.50195,0.0081580039
3912.21631,0.0078374054
3910.93066,0.0075734369
3909.64502,0.0074235545
3908.35938,0.0074445684
3907.07373,0.0076955208
3905.78809,0.0081429947
3904.50244,0.0086455094
3903.21680,0.0090867477
3901.93115,0.0094814170
3900.64551,0.0097786877
3899.35986,0.0097165275
3898.07422,0.0091766557
3896.78857,0.0084770154
3895.50293,0.0080325194
3894.21729,0.0079605915
3892.93164,0.0081277238
3891.64600,0.0083368476
3890.36035,0.0084291883
3889.07471,0.0083576422
3887.78906,0.0082326550
3886.50342,0.0082505159
3885.21777,0.0085415067
3883.93213,0.0090077976
3882.64648,0.0094108609
3881.36084,0.0096442914
3880.07520,0.0096726660
3878.78955,0.0094107809
3877.50391,0.0089454567
3876.21826,0.0085789179
3874.93262,0.0085216807
3873.64697,0.0087407157
3872.36133,0.0090724472
3871.07568,0.0093991421
3869.79004,0.0095917312
3868.50439,0.0094504366
3867.21875,0.0090450104
3865.93311,0.0087952595
3864.64746,0.0089584589
3863.36182,0.0092932656
3862.07617,0.0092711849
3860.79053,0.0087298593
3859.50488,0.0079904627
3858.21924,0.0073557547
3856.93359,0.0069127204
3855.64795,0.0066986014
3854.36230,0.0068714027
3853.07666,0.0075521022
3851.79102,0.0081703467
3850.50537,0.0079286899
3849.21973,0.0071314704
3847.93408,0.0064352462
3846.64844,0.0061744396
3845.36279,0.0064077922
3844.07715,0.0070152287
3842.79150,0.0077767349
3841.50586,0.0084504094
3840.22021,0.0088647641
3838.93457,0.0090109175
3837.64893,0.0090769138
3836.36328,0.0092723742
3835.07764,0.0095002549
3833.79199,0.0094592730
3832.50635,0.0090099648
3831.22070,0.0082631800
3829.93506,0.0074552600
3828.64941,0.0068112360
3827.36377,0.0064954138
3826.07813,0.0065364330
3824.79248,0.0067428211
3823.50684,0.0068754265
3822.22119,0.0069882376
3820.93555,0.0074064657
3819.64990,0.0081468718
3818.36426,0.0086287148
3817.07861,0.0084954938
3815.79297,0.0079653896
3814.50732,0.0073955646
3813.22168,0.0069584874
3811.93604,0.0066259727
3810.65039,0.0063481876
3809.36475,0.0061623096
3808.07910,0.0062206271
3806.79346,0.0067060147
3805.50781,0.0075391163
3804.22217,0.0082864510
3802.93652,0.0085935183
3801.65088,0.0083988374
3800.36523,0.0078291027
3799.07959,0.0071338122
3797.79395,0.0065004854
3796.50830,0.0059867715
3795.22266,0.0056803608
3793.93701,0.0056968844
3792.65137,0.0060225977
3791.36572,0.0064785713
3790.08008,0.0068417392
3788.79443,0.0069968398
3787.50879,0.0070362221
3786.22314,0.0071542854
3784.93750,0.0074067814
3783.65186,0.0076438016
3782.36621,0.0077325427
3781.08057,0.0077243471
3779.79492,0.0077061923
3778.50928,0.0076324195
3777.22363,0.0073928530
3775.93799,0.0069827135
3774.65234,0.0065056621
3773.36670,0.0061048651
3772.08105,0.0059253620
3770.79541,0.0060272170
3769.50977,0.0063018287
3768.22412,0.0065972987
3766.93848,0.0069439146
3765.65283,0.0074337190
3764.36719,0.0079431646
3763.08154,0.0082262717
3761.79590,0.0081959609
3760.51025,0.0079596676
3759.22461,0.0077033467
3757.93896,0.0076348432
3756.65332,0.0078524025
3755.36768,0.0082298061
3754.08203,0.0085990625
3752.79639,0.0089383228
3751.51074,0.0092912037
3750.22510,0.0095147546
3748.93945,0.0093391007
3747.65381,0.0089108953
3746.36816,0.0086711245
3745.08252,0.0088715013
3743.79688,0.0094300397
3742.51123,0.0098782461
3741.22559,0.0098071219
3739.93994,0.0092819212
3738.65430,0.0085971346
3737.36865,0.0081149843
3736.08301,0.0082396735
3734.79736,0.0091365511
3733.51172,0.0102906786
3732.22607,0.0109273857
3730.94043,0.0109677901
3729.65479,0.0108567532
3728.36914,0.0109272534
3727.08350,0.0111957109
3725.79785,0.0114123253
3724.51221,0.0112677794
3723.22656,0.0107387397
3721.94092,0.0101334965
3720.65527,0.0097132446
3719.36963,0.0094612567
3718.08398,0.0092193028
3716.79834,0.0089029949
3715.51270,0.0085674310
3714.22705,0.0083499365
3712.94141,0.0083816312
3711.65576,0.0086939409
3710.37012,0.0091428682
3709.08447,0.0094684269
3707.79883,0.0095270574
3706.51318,0.0093452623
3705.22754,0.0090574063
3703.94189,0.0088655045
3702.65625,0.0089282030
3701.37061,0.0092168450
3700.08496,0.0095010214
3698.79932,0.0095575675
3697.51367,0.0093182325
3696.22803,0.0088239210
3694.94238,0.0082226051
3693.65674,0.0077704629
3692.37109,0.0077099861
3691.08545,0.0081138238
3689.79980,0.0087567745
3688.51416,0.0090988530
3687.22852,0.0088112671
3685.94287,0.0082820188
3684.65723,0.0079970015
3683.37158,0.0080243982
3682.08594,0.0081697674
3680.80029,0.0082338164
3679.51465,0.0081677884
3678.22900,0.0080809360
3676.94336,0.0080972342
3675.65771,0.0082125813
3674.37207,0.0083464272
3673.08643,0.0085930163
3671.80078,0.0091654714
3670.51514,0.0100398138
3669.22949,0.0107555902
3667.94385,0.0106447404
3666.65820,0.0096598286
3665.37256,0.0083519947
3664.08691,0.0071944459
3662.80127,0.0064932858
3661.51563,0.0064414199
3660.22998,0.0070062317
3658.94434,0.0079308255
3657.65869,0.0089166295
3656.37305,0.0097237807
3655.08740,0.0101967501
3653.80176,0.0104047516
3652.51611,0.0106546097
3651.23047,0.0112850750
3649.94482,0.0125570176
3648.65918,0.0144282700
3647.37354,0.0160934124
3646.08789,0.0166888144
3644.80225,0.0163669661
3643.51660,0.0156649426
3642.23096,0.0149624683
3640.94531,0.0144620165
3639.65967,0.0142029515
3638.37402,0.0141182272
3637.08838,0.0141627537
3635.80273,0.0143865785
3634.51709,0.0149280401
3633.23145,0.0159603525
3631.94580,0.0175496079
3630.66016,0.0195046216
3629.37451,0.0213208143
3628.08887,0.0223472789
3626.80322,0.0225625504
3625.51758,0.0227285493
3624.23193,0.0231740177
3622.94629,0.0236967541
3621.66064,0.0241304655
3620.37500,0.0244827121
3619.08936,0.0247875545
3617.80371,0.0250211190
3616.51807,0.0252487753
3615.23242,0.0255789794
3613.94678,0.0258956645
3612.66113,0.0259333644
3611.37549,0.0256675892
3610.08984,0.0254570358
3608.80420,0.0256634969
3607.51855,0.0263588633
3606.23291,0.0274055339
3604.94727,0.0286603589
3603.66162,0.0300542600
3602.37598,0.0315667093
3601.09033,0.0331289209
3599.80469,0.0344654545
3598.51904,0.0350926928
3597.23340,0.0346672423
3595.94775,0.0333861336
3594.66211,0.0320071802
3593.37646,0.0314016044
3592.09082,0.0318151452
3590.80518,0.0327094086
3589.51953,0.0334468260
3588.23389,0.0337889194
3586.94824,0.0337960534
3585.66260,0.0334737524
3584.37695,0.0327870920
3583.09131,0.0320776850
3581.80566,0.0319166556
3580.52002,0.0324662626
3579.23438,0.0332002752
3577.94873,0.0335220173
3576.66309,0.0335778631
3575.37744,0.0339050293
3574.09180,0.0343902409
3572.80615,0.0343464501
3571.52051,0.0336597301
3570.23486,0.0331115983
3568.94922,0.0333894938
3567.66357,0.0341126919
3566.37793,0.0339964479
3565.09229,0.0325174257
3563.80664,0.0308565125
3562.52100,0.0300829131
3561.23535,0.0301407911
3559.94971,0.0305781793
3558.66406,0.0310804900
3557.37842,0.0314131789
3556.09277,0.0313138478
3554.80713,0.0306858998
3553.52148,0.0298013352
3552.23584,0.0291021839
3550.95020,0.0287291352
3549.66455,0.0284854956
3548.37891,0.0284401700
3547.09326,0.0291886926
3545.80762,0.0311098844
3544.52197,0.0333540738
3543.23633,0.0343208201
3541.95068,0.0336268619
3540.66504,0.0325686224
3539.37939,0.0324188173
3538.09375,0.0329606831
3536.80811,0.0328560807
3535.52246,0.0313573368
3534.23682,0.0293129645
3532.95117,0.0281093568
3531.66553,0.0280748662
3530.37988,0.0283634793
3529.09424,0.0280209668
3527.80859,0.0268933531
3526.52295,0.0256189834
3525.23730,0.0248024371
3523.95166,0.0244035423
3522.66602,0.0241093654
3521.38037,0.0239713099
3520.09473,0.0242211055
3518.80908,0.0246036146
3517.52344,0.0244398806
3516.23779,0.0234523956
3514.95215,0.0221243016
3513.66650,0.0210499391
3512.38086,0.0201683864
3511.09521,0.0188749339
3509.80957,0.0167143159
3508.52393,0.0138148190
3507.23828,0.0108312219
3505.95264,0.0087072523
3504.66699,0.0084570870
3503.38135,0.0105431229
3502.09570,0.0137678180
3500.81006,0.0155010000
3499.52441,0.0143907266
3498.23877,0.0121213449
3496.95313,0.0115279695
3495.66748,0.0136627937
3494.38184,0.0168417674
3493.09619,0.0183486491
3491.81055,0.0169827156
3490.52490,0.0139180068
3489.23926,0.0114963371
3487.95361,0.0110567082
3486.66797,0.0115276230
3485.38232,0.0104611246
3484.09668,0.0067253374
3482.81104,0.0017203676
3481.52539,-0.0020443143
3480.23975,-0.0031395683
3478.95410,-0.0019145453
3477.66846,0.0005360148
3476.38281,0.0033607504
3475.09717,0.0058214576
3473.81152,0.0069225044
3472.52588,0.0059651984
3471.24023,0.0033750206
3469.95459,0.0004419948
3468.66895,-0.0019944832
3467.38330,-0.0041578216
3466.09766,-0.0064516515
3464.81201,-0.0086387889
3463.52637,-0.0101827672
3462.24072,-0.0110151451
3460.95508,-0.0115415361
3459.66943,-0.0120531907
3458.38379,-0.0122063942
3457.09814,-0.0112872235
3455.81250,-0.0092610214
3454.52686,-0.0074428907
3453.24121,-0.0074175969
3451.95557,-0.0091154967
3450.66992,-0.0107525950
3449.38428,-0.0109932888
3448.09863,-0.0108488975
3446.81299,-0.0130541474
3445.52734,-0.0190222319
3444.24170,-0.0263642147
3442.95605,-0.0305662174
3441.67041,-0.0289766435
3440.38477,-0.0230996478
3439.09912,-0.0170886777
3437.81348,-0.0142839635
3436.52783,-0.0153020378
3435.24219,-0.0187506918
3433.95654,-0.0224004854
3432.67090,-0.0238276329
3431.38525,-0.0217544083
3430.09961,-0.0169365387
3428.81396,-0.0121891275
3427.52832,-0.0112463627
3426.24268,-0.0165196806
3424.95703,-0.0266623460
3423.67139,-0.0366910622
3422.38574,-0.0414470509
3421.10010,-0.0388521217
3419.81445,-0.0307885576
3418.52881,-0.0217814930
3417.24316,-0.0165455975
3415.95752,-0.0176158659
3414.67188,-0.0233205464
3413.38623,-0.0286921188
3412.10059,-0.0297372062
3410.81494,-0.0269992389
3409.52930,-0.0241145771
3408.24365,-0.0238814913
3406.95801,-0.0265982673
3405.67236,-0.0312664397
3404.38672,-0.0369997285
3403.10107,-0.0432004705
3401.81543,-0.0490304008
3400.52979,-0.0535652377
3399.24414,-0.0569270886
3397.95850,-0.0604070500
3396.67285,-0.0638495833
3395.38721,-0.0639547855
3394.10156,-0.0578629784
3392.81592,-0.0486280248
3391.53027,-0.0439205021
3390.24463,-0.0486315005
3388.95898,-0.0602636226
3387.67334,-0.0721389204
3386.38770,-0.0794516057
3385.10205,-0.0810739696
3383.81641,-0.0774909332
3382.53076,-0.0695945024
3381.24512,-0.0597668774
3379.95947,-0.0518136434
3378.67383,-0.0485169627
3377.38818,-0.0493667945
3376.10254,-0.0511760823
3374.81689,-0.0512209944
3373.53125,-0.0496105775
3372.24561,-0.0486656092
3370.95996,-0.0504540280
3369.67432,-0.0550644137
3368.38867,-0.0611343868
3367.10303,-0.0670473650
3365.81738,-0.0712962151
3364.53174,-0.0726927742
3363.24609,-0.0716320872
3361.96045,-0.0709960908
3360.67480,-0.0741415992
3359.38916,-0.0818435177
3358.10352,-0.0913692638
3356.81787,-0.0983833447
3355.53223,-0.0988814309
3354.24658,-0.0914549604
3352.96094,-0.0786209852
3351.67529,-0.0656519085
3350.38965,-0.0566802658
3349.10400,-0.0520036928
3347.81836,-0.0496302471
3346.53271,-0.0488649085
3345.24707,-0.0511201695
3343.96143,-0.0571954884
3342.67578,-0.0650981292
3341.39014,-0.0708842725
3340.10449,-0.0712779015
3338.81885,-0.0668931678
3337.53320,-0.0630325899
3336.24756,-0.0656490102
3334.96191,-0.0758147165
3333.67627,-0.0886411369
3332.39063,-0.0975701287
3331.10498,-0.0990360305
3329.81934,-0.0935773477
3328.53369,-0.0849510506
3327.24805,-0.0778812543
3325.96240,-0.0747073814
3324.67676,-0.0732439533
3323.39111,-0.0701417252
3322.10547,-0.0654493943
3320.81982,-0.0626069382
3319.53418,-0.0643275008
3318.24854,-0.0702296048
3316.96289,-0.0776944160
3315.67725,-0.0832324103
3314.39160,-0.0838887319
3313.10596,-0.0795169994
3311.82031,-0.0739676803
3310.53467,-0.0721569136
3309.24902,-0.0757924542
3307.96338,-0.0826877281
3306.67773,-0.0891980007
3305.39209,-0.0924921706
3304.10645,-0.0921209380
3302.82080,-0.0902243853
3301.53516,-0.0895448327
3300.24951,-0.0909724087
3298.96387,-0.0933703780
3297.67822,-0.0960253850
3296.39258,-0.0990837440
3295.10693,-0.1017380878
3293.82129,-0.1014739275
3292.53564,-0.0970700234
3291.25000,-0.0909229442
3289.96436,-0.0877135545
3288.67871,-0.0904091895
3287.39307,-0.0969773531
3286.10742,-0.1027048081
3284.82178,-0.1047384664
3283.53613,-0.1032916456
3282.25049,-0.0991705358
3280.96484,-0.0919675976
3279.67920,-0.0818557441
3278.39355,-0.0721828192
3277.10791,-0.0684005320
3275.82227,-0.0734235346
3274.53662,-0.0842012465
3273.25098,-0.0940155759
3271.96533,-0.0988359153
3270.67969,-0.1003080457
3269.39404,-0.1018281877
3268.10840,-0.1037427261
3266.82275,-0.1040451378
3265.53711,-0.1022084951
3264.25146,-0.0994465798
3262.96582,-0.0965373442
3261.68018,-0.0938222408
3260.39453,-0.0923473760
3259.10889,-0.0925934687
3257.82324,-0.0930544510
3256.53760,-0.0925951377
3255.25195,-0.0930441692
3253.96631,-0.0968816802
3252.68066,-0.1029029265
3251.39502,-0.1066880077
3250.10938,-0.1053118110
3248.82373,-0.1004417390
3247.53809,-0.0971685424
3246.25244,-0.0995613560
3244.96680,-0.1068732291
3243.68115,-0.1144609824
3242.39551,-0.1188444644
3241.10986,-0.1204220429
3239.82422,-0.1206916720
3238.53857,-0.1187810674
3237.25293,-0.1129724756
3235.96729,-0.1047276184
3234.68164,-0.0984112024
3233.39600,-0.0976309478
3232.11035,-0.1028414518
3230.82471,-0.1113778502
3229.53906,-0.1183858290
3228.25342,-0.1190370172
3226.96777,-0.1119345427
3225.68213,-0.1008434966
3224.39648,-0.0922661349
3223.11084,-0.0903255716
3221.82520,-0.0941196308
3220.53955,-0.0999373347
3219.25391,-0.1045950279
3217.96826,-0.1063164994
3216.68262,-0.1046694070
3215.39697,-0.1012905315
3214.11133,-0.0992925167
3212.82568,-0.0998732820
3211.54004,-0.1004246101
3210.25439,-0.0976686999
3208.96875,-0.0920222998
3207.68311,-0.0872852728
3206.39746,-0.0866115019
3205.11182,-0.0898515284
3203.82617,-0.0946268365
3202.54053,-0.0985548124
3201.25488,-0.1004514769
3199.96924,-0.1006631926
3198.68359,-0.1006232426
3197.39795,-0.1014284343
3196.11230,-0.1027281806
3194.82666,-0.1033127829
3193.54102,-0.1025145128
3192.25537,-0.1007237583
3190.96973,-0.0986013114
3189.68408,-0.0961870030
3188.39844,-0.0929818153
3187.11279,-0.0888055786
3185.82715,-0.0844098255
3184.54150,-0.0809449106
3183.25586,-0.0788911507
3181.97021,-0.0776494369
3180.68457,-0.0763652548
3179.39893,-0.0750147849
3178.11328,-0.0745108798
3176.82764,-0.0756752640
3175.54199,-0.0781140104
3174.25635,-0.0803446546
3172.97070,-0.0809934214
3171.68506,-0.0799181238
3170.39941,-0.0780666992
3169.11377,-0.0761890486
3167.82813,-0.0740539879
3166.54248,-0.0709982887
3165.25684,-0.0669098049
3163.97119,-0.0624874718
3162.68555,-0.0589160174
3161.39990,-0.0574061535
3160.11426,-0.0584200695
3158.82861,-0.0609270483
3157.54297,-0.0628679469
3156.25732,-0.0629552007
3154.97168,-0.0618339814
3153.68604,-0.0610160828
3152.40039,-0.0609519370
3151.11475,-0.0606090464
3149.82910,-0.0588408783
3148.54346,-0.0557875820
3147.25781,-0.0527022183
3145.97217,-0.0504656881
3144.68652,-0.0486685261
3143.40088,-0.0464448892
3142.11523,-0.0438018180
3140.82959,-0.0416277200
3139.54395,-0.0406606831
3138.25830,-0.0410134606
3136.97266,-0.0423569828
3135.68701,-0.0439230278
3134.40137,-0.0445077717
3133.11572,-0.0432769544
3131.83008,-0.0406884067
3130.54443,-0.0380798690
3129.25879,-0.0362973660
3127.97314,-0.0350839607
3126.68750,-0.0337268226
3125.40186,-0.0318966471
3124.11621,-0.0298104435
3122.83057,-0.0277706515
3121.54492,-0.0257806145
3120.25928,-0.0237050969
3118.97363,-0.0217477623
3117.68799,-0.0204478633
3116.40234,-0.0200360958
3115.11670,-0.0200565625
3113.83105,-0.0198524427
3112.54541,-0.0191733409
3111.25977,-0.0180578958
3109.97412,-0.0165565610
3108.68848,-0.0149304820
3107.40283,-0.0137824034
3106.11719,-0.0134286694
3104.83154,-0.0132573675
3103.54590,-0.0122163100
3102.26025,-0.0099978866
3100.97461,-0.0074275215
3099.68896,-0.0055856840
3098.40332,-0.0047881431
3097.11768,-0.0045592510
3095.83203,-0.0043460764
3094.54639,-0.0039986754
3093.26074,-0.0035870227
3091.97510,-0.0030065270
3090.68945,-0.0019566547
3089.40381,-0.0003056575
3088.11816,0.0016455783
3086.83252,0.0033597071
3085.54688,0.0045388476
3084.26123,0.0053517590
3082.97559,0.0061509670
3081.68994,0.0070435107
3080.40430,0.0078501627
3079.11865,0.0084949918
3077.83301,0.0092534674
3076.54736,0.0104534617
3075.26172,0.0119814603
3073.97607,0.0132726887
3072.69043,0.0138923218
3071.40479,0.0140398024
3070.11914,0.0143744573
3068.83350,0.0153362621
3067.54785,0.0167618003
3066.26221,0.0181845296
3064.97656,0.0193816647
3063.69092,0.0204701610
3062.40527,0.0215130821
3061.11963,0.0222966205
3059.83398,0.0226252656
3058.54834,0.0226926822
3057.26270,0.0229667947
3055.97705,0.0237394031
3054.69141,0.0249076933
3053.40576,0.0261700768
3052.12012,0.0272924770
3050.83447,0.0281939004
3049.54883,0.0289522111
3048.26318,0.0297765229
3046.97754,0.0308328625
3045.69189,0.0320348814
3044.40625,0.0331058130
3043.12061,0.0338867791
3041.83496,0.0344916284
3040.54932,0.0351334736
3039.26367,0.0358843543
3037.97803,0.0366598852
3036.69238,0.0373760872
3035.40674,0.0380386561
3034.12109,0.0386886820
3032.83545,0.0393299535
3031.54980,0.0399484858
3030.26416,0.0405664146
3028.97852,0.0412317067
3027.69287,0.0419806987
3026.40723,0.0428431407
3025.12158,0.0438195467
3023.83594,0.0448004305
3022.55029,0.0455887616
3021.26465,0.0460987836
3019.97900,0.0464881584
3018.69336,0.0469814464
3017.40771,0.0475993901
3016.12207,0.0481752418
3014.83643,0.0486262925
3013.55078,0.0490714982
3012.26514,0.0496314764
3010.97949,0.0502203703
3009.69385,0.0506478734
3008.40820,0.0508863702
3007.12256,0.0511329770
3005.83691,0.0516078733
3004.55127,0.0523607098
3003.26563,0.0532747321
3001.97998,0.0542025156
3000.69434,0.0550792515
2999.40869,0.0559301674
2998.12305,0.0567613989
2996.83740,0.0574596412
2995.55176,0.0578729175
2994.26611,0.0580186956
2992.98047,0.0581226647
2991.69482,0.0584009252
2990.40918,0.0588662326
2989.12354,0.0593677424
2987.83789,0.0597301312
2986.55225,0.0598516911
2985.26660,0.0598016046
2983.98096,0.0598466434
2982.69531,0.0602557398
2981.40967,0.0610192679
2980.12402,0.0618436784
2978.83838,0.0624691322
2977.55273,0.0629228204
2976.26709,0.0634051785
2974.98145,0.0639720261
2973.69580,0.0644198060
2972.41016,0.0645219013
2971.12451,0.0643061996
2969.83887,0.0640278533
2968.55322,0.0638981909
2967.26758,0.0639394596
2965.98193,0.0640763342
2964.69629,0.0642452165
2963.41064,0.0643876716
2962.12500,0.0644454136
2960.83936,0.0644278824
2959.55371,0.0644370988
2958.26807,0.0646021590
2956.98242,0.0649883077
2955.69678,0.0655424520
2954.41113,0.0661102906
2953.12549,0.0665404499
2951.83984,0.0667856038
2950.55420,0.0668821633
2949.26855,0.0668724626
2947.98291,0.0668170601
2946.69727,0.0668394342
2945.41162,0.0670373067
2944.12598,0.0673378408
2942.84033,0.0675372705
2941.55469,0.0675203651
2940.26904,0.0673746020
2938.98340,0.0672458112
2937.69775,0.0671454221
2936.41211,0.0669655725
2935.12646,0.0666374639
2933.84082,0.0661974028
2932.55518,0.0657111183
2931.26953,0.0652180910
2929.98389,0.0647509247
2928.69824,0.0643403083
2927.41260,0.0639888272
2926.12695,0.0637012422
2924.84131,0.0635460839
2923.55566,0.0636167154
2922.27002,0.0639184341
2920.98438,0.0643521324
2919.69873,0.0648090988
2918.41309,0.0652295873
2917.12744,0.0655888095
2915.84180,0.0659117848
2914.55615,0.0663035735
2913.27051,0.0668724403
2911.98486,0.0675897449
2910.69922,0.0682816654
2909.41357,0.0687856376
2908.12793,0.0690722838
2906.84229,0.0692014620
2905.55664,0.0692212880
2904.27100,0.0691584200
2902.98535,0.0690628067
2901.69971,0.0689970180
2900.41406,0.0689864084
2899.12842,0.0690243244
2897.84277,0.0691258833
2896.55713,0.0693320781
2895.27148,0.0696491972
2893.98584,0.0700148046
2892.70020,0.0703381076
2891.41455,0.0705575868
2890.12891,0.0706533641
2888.84326,0.0706261396
2887.55762,0.0704889446
2886.27197,0.0702713951
2884.98633,0.0700116158
2883.70068,0.0697489083
2882.41504,0.0695333928
2881.12939,0.0694248527
2879.84375,0.0694356784
2878.55811,0.0694754347
2877.27246,0.0693994984
2875.98682,0.0691576302
2874.70117,0.0688710809
2873.41553,0.0687175840
2872.12988,0.0687377900
2870.84424,0.0687960461
2869.55859,0.0687464029
2868.27295,0.0685856119
2866.98730,0.0684017539
2865.70166,0.0682163909
2864.41602,0.0679583400
2863.13037,0.0675938800
2861.84473,0.0671977326
2860.55908,0.0668601766
2859.27344,0.0665729120
2857.98779,0.0662555024
2856.70215,0.0658684671
2855.41650,0.0654616058
2854.13086,0.0651297271
2852.84521,0.0649617314
2851.55957,0.0650233328
2850.27393,0.0653404146
2848.98828,0.0658693388
2847.70264,0.0665049925
2846.41699,0.0671414062
2845.13135,0.0677128509
2843.84570,0.0681739524
2842.56006,0.0684814379
2841.27441,0.0686231107
2839.98877,0.0686425194
2838.70313,0.0686115623
2837.41748,0.0685860366
2836.13184,0.0685859770
2834.84619,0.0685826018
2833.56055,0.0685026571
2832.27490,0.0682990476
2830.98926,0.0680378750
2829.70361,0.0678618774
2828.41797,0.0678412691
2827.13232,0.0679072216
2825.84668,0.0679525584
2824.56104,0.0679462031
2823.27539,0.0679101273
2821.98975,0.0678401515
2820.70410,0.0677065030
2819.41846,0.0675063282
2818.13281,0.0672688112
2816.84717,0.0670140758
2815.56152,0.0667508245
2814.27588,0.0665089786
2812.99023,0.0663360283
2811.70459,0.0662434399
2810.41895,0.0661719963
2809.13330,0.0660355166
2807.84766,0.0658013746
2806.56201,0.0655092224
2805.27637,0.0652124360
2803.99072,0.0649301410
2802.70508,0.0646771044
2801.41943,0.0644982606
2800.13379,0.0644247830
2798.84814,0.0644123852
2797.56250,0.0643671378
2796.27686,0.0642360896
2794.99121,0.0640464798
2793.70557,0.0638663471
2792.41992,0.0637417659
2791.13428,0.0636574775
2789.84863,0.0635488704
2788.56299,0.0633707941
2787.27734,0.0631534830
2785.99170,0.0629592240
2784.70605,0.0627965033
2783.42041,0.0626199245
2782.13477,0.0624050535
2780.84912,0.0621746927
2779.56348,0.0619628802
2778.27783,0.0617975034
2776.99219,0.0617062487
2775.70654,0.0616997778
2774.42090,0.0617492832
2773.13525,0.0618102439
2771.84961,0.0618621856
2770.56396,0.0619098209
2769.27832,0.0619581565
2767.99268,0.0619920790
2766.70703,0.0619782507
2765.42139,0.0618866608
2764.13574,0.0617266595
2762.85010,0.0615498386
2761.56445,0.0614022762
2760.27881,0.0612873472
2758.99316,0.0611931309
2757.70752,0.0611366592
2756.42188,0.0611434542
2755.13623,0.0611840449
2753.85059,0.0611919127
2752.56494,0.0611716695
2751.27930,0.0612291619
2749.99365,0.0614273921
2748.70801,0.0616494156
2747.42236,0.0617007352
2746.13672,0.0615454912
2744.85107,0.0613525473
2743.56543,0.0613031462
2742.27979,0.0614266731
2740.99414,0.0616363175
2739.70850,0.0618359186
2738.42285,0.0619654767
2737.13721,0.0620093346
2735.85156,0.0620063841
2734.56592,0.0620197840
2733.28027,0.0620733574
2731.99463,0.0621301308
2730.70898,0.0621337406
2729.42334,0.0620514117
2728.13770,0.0618854128
2726.85205,0.0616625063
2725.56641,0.0614195205
2724.28076,0.0611983538
2722.99512,0.0610548407
2721.70947,0.0610478967
2720.42383,0.0611859448
2719.13818,0.0613889173
2717.85254,0.0615363307
2716.56689,0.0615657084
2715.28125,0.0615106784
2713.99561,0.0614490323
2712.70996,0.0614321865
2711.42432,0.0614600740
2710.13867,0.0614952892
2708.85303,0.0614948422
2707.56738,0.0614438988
2706.28174,0.0613653697
2704.99609,0.0612950698
2703.71045,0.0612600110
2702.42480,0.0612815097
2701.13916,0.0613709092
2699.85352,0.0614983886
2698.56787,0.0615914762
2697.28223,0.0615986139
2695.99658,0.0615490042
2694.71094,0.0615283065
2693.42529,0.0615991466
2692.13965,0.0617475547
2690.85400,0.0618971102
2689.56836,0.0619726665
2688.28271,0.0619725510
2686.99707,0.0619781092
2685.71143,0.0620728768
2684.42578,0.0622578338
2683.14014,0.0624651648
2681.85449,0.0626429543
2680.56885,0.0628032312
2679.28320,0.0629999861
2677.99756,0.0632796586
2676.71191,0.0636312291
2675.42627,0.0639670491
2674.14063,0.0641813800
2672.85498,0.0642518699
2671.56934,0.0642611161
2670.28369,0.0642986968
2668.99805,0.0643748567
2667.71240,0.0644494966
2666.42676,0.0645096153
2665.14111,0.0645856261
2663.85547,0.0647088289
2662.56982,0.0648811683
2661.28418,0.0650787503
2659.99854,0.0652660131
2658.71289,0.0654207915
2657.42725,0.0655575618
2656.14160,0.0657179877
2654.85596,0.0659281462
2653.57031,0.0661732033
2652.28467,0.0664163455
2650.99902,0.0666269660
2649.71338,0.0667859688
2648.42773,0.0668842793
2647.14209,0.0669329837
2645.85645,0.0669683218
2644.57080,0.0670375153
2643.28516,0.0671764910
2641.99951,0.0673836693
2640.71387,0.0675987527
2639.42822,0.0677264035
2638.14258,0.0677223206
2636.85693,0.0676582232
2635.57129,0.0676668659
2634.28564,0.0678150654
2633.00000,0.0680505857
2631.71436,0.0682781860
2630.42871,0.0684618503
2629.14307,0.0686399937
2627.85742,0.0688563138
2626.57178,0.0690924004
2625.28613,0.0692712367
2624.00049,0.0693277940
2622.71484,0.0692738369
2621.42920,0.0691915080
2620.14355,0.0691580549
2618.85791,0.0691737756
2617.57227,0.0691647679
2616.28662,0.0690685138
2615.00098,0.0689232647
2613.71533,0.0688522160
2612.42969,0.0689335763
2611.14404,0.0691040233
2609.85840,0.0692239553
2608.57275,0.0692277178
2607.28711,0.0691676438
2606.00146,0.0691183507
2604.71582,0.0690926686
2603.43018,0.0690697581
2602.14453,0.0690573454
2600.85889,0.0690776184
2599.57324,0.0691026896
2598.28760,0.0690495446
2597.00195,0.0688682124
2595.71631,0.0686205402
2594.43066,0.0684356689
2593.14502,0.0683795810
2591.85938,0.0683977678
2590.57373,0.0683974251
2589.28809,0.0683497041
2588.00244,0.0682856664
2586.71680,0.0682293177
2585.43115,0.0681849718
2584.14551,0.0681653544
2582.85986,0.0681816489
2581.57422,0.0682044849
2580.28857,0.0681800097
2579.00293,0.0680904686
2577.71729,0.0679696947
2576.43164,0.0678539500
2575.14600,0.0677423254
2573.86035,0.0676179007
2572.57471,0.0674891248
2571.28906,0.0673904121
2570.00342,0.0673402026
2568.71777,0.0673085600
2567.43213,0.0672393739
2566.14648,0.0671101138
2564.86084,0.0669699758
2563.57520,0.0669058040
2562.28955,0.0669605583
2561.00391,0.0670814961
2559.71826,0.0671508610
2558.43262,0.0670818910
2557.14697,0.0668918565
2555.86133,0.0666724369
2554.57568,0.0664916635
2553.29004,0.0663444325
2552.00439,0.0662027448
2550.71875,0.0660708696
2549.43311,0.0659665912
2548.14746,0.0658758432
2546.86182,0.0657656938
2545.57617,0.0656284541
2544.29053,0.0654904023
2543.00488,0.0653856993
2541.71924,0.0653414056
2540.43359,0.0653562099
2539.14795,0.0653671548
2537.86230,0.0652661920
2536.57666,0.0649939030
2535.29102,0.0646134466
2534.00537,0.0642544627
2532.71973,0.0639842674
2531.43408,0.0637609512
2530.14844,0.0635141134
2528.86279,0.0632314086
2527.57715,0.0629432499
2526.29150,0.0626522228
2525.00586,0.0623223670
2523.72021,0.0619399771
2522.43457,0.0615489148
2521.14893,0.0612059161
2519.86328,0.0609193332
2518.57764,0.0606485531
2517.29199,0.0603606999
2516.00635,0.0600689687
2514.72070,0.0598144382
2513.43506,0.0596160330
2512.14941,0.0594497472
2510.86377,0.0592718013
2509.57813,0.0590516627
2508.29248,0.0587841310
2507.00684,0.0584871657
2505.72119,0.0581959821
2504.43555,0.0579458885
2503.14990,0.0577439591
2501.86426,0.0575593822
2500.57861,0.0573544092
2499.29297,0.0571197383
2498.00732,0.0568749346
2496.72168,0.0566337444
2495.43604,0.0563778616
2494.15039,0.0560704954
2492.86475,0.0556962118
2491.57910,0.0552889742
2490.29346,0.0549116395
2489.00781,0.0546016097
2487.72217,0.0543366224
2486.43652,0.0540645309
2485.15088,0.0537666492
2483.86523,0.0534808300
2482.57959,0.0532548316
2481.29395,0.0530831479
2480.00830,0.0529006869
2478.72266,0.0526496246
2477.43701,0.0523403846
2476.15137,0.0520364195
2474.86572,0.0517855883
2473.58008,0.0515796840
2472.29443,0.0513728522
2471.00879,0.0511168167
2469.72314,0.0507884175
2468.43750,0.0504045598
2467.15186,0.0500170961
2465.86621,0.0496840626
2464.58057,0.0494453013
2463.29492,0.0493084304
2462.00928,0.0492279716
2460.72363,0.0490989126
2459.43799,0.0488274433
2458.15234,0.0484366901
2456.86670,0.0480600558
2455.58105,0.0478015170
2454.29541,0.0476353243
2453.00977,0.0474742278
2451.72412,0.0472885631
2450.43848,0.0471056923
2449.15283,0.0469232984
2447.86719,0.0466898195
2446.58154,0.0463847406
2445.29590,0.0460713804
2444.01025,0.0458393395
2442.72461,0.0457143299
2441.43896,0.0456438214
2440.15332,0.0455634259
2438.86768,0.0454542525
2437.58203,0.0453303680
2436.29639,0.0451892167
2435.01074,0.0449941047
2433.72510,0.0447121598
2432.43945,0.0443655439
2431.15381,0.0440375097
2429.86816,0.0438125618
2428.58252,0.0436985306
2427.29688,0.0436086841
2426.01123,0.0434423722
2424.72559,0.0431882553
2423.43994,0.0429335125
2422.15430,0.0427582413
2420.86865,0.0426393971
2419.58301,0.0424818769
2418.29736,0.0422354527
2417.01172,0.0419511311
2415.72607,0.0417161211
2414.44043,0.0415557213
2413.15479,0.0414168499
2411.86914,0.0412355773
2410.58350,0.0410016663
2409.29785,0.0407545716
2408.01221,0.0405309759
2406.72656,0.0403322950
2405.44092,0.0401455425
2404.15527,0.0399781130
2402.86963,0.0398501568
2401.58398,0.0397565067
2400.29834,0.0396517590
2399.01270,0.0394802056
2397.72705,0.0392192155
2396.44141,0.0389015004
2395.15576,0.0385978483
2393.87012,0.0383727662
2392.58447,0.0382462963
2391.29883,0.0381948166
2390.01318,0.0381832868
2388.72754,0.0381989777
2387.44189,0.0382760949
2386.15625,0.0385049209
2384.87061,0.0390049070
2383.58496,0.0398680605
2382.29932,0.0411207378
2381.01367,0.0427291058
2379.72803,0.0446157344
2378.44238,0.0466763303
2377.15674,0.0488369726
2375.87109,0.0511347540
2374.58545,0.0536935553
2373.29980,0.0565614961
2372.01416,0.0596208163
2370.72852,0.0627329722
2369.44287,0.0659069419
2368.15723,0.0691983029
2366.87158,0.0724755004
2365.58594,0.0754429400
2364.30029,0.0779154450
2363.01465,0.0799286589
2361.72900,0.0815251917
2360.44336,0.0825370848
2359.15771,0.0825913027
2357.87207,0.0812890902
2356.58643,0.0785422549
2355.30078,0.0748299584
2354.01514,0.0708562657
2352.72949,0.0669822693
2351.44385,0.0633252338
2350.15820,0.0602152422
2348.87256,0.0581716411
2347.58691,0.0576171950
2346.30127,0.0587035194
2345.01563,0.0610895455
2343.72998,0.0637609512
2342.44434,0.0655574128
2341.15869,0.0660898462
2339.87305,0.0656890124
2338.58740,0.0648030639
2337.30176,0.0637646988
2336.01611,0.0627858192
2334.73047,0.0619839802
2333.44482,0.0614232682
2332.15918,0.0610998310
2330.87354,0.0608896352
2329.58789,0.0605606399
2328.30225,0.0598831065
2327.01660,0.0587769598
2325.73096,0.0573952645
2324.44531,0.0560456924
2323.15967,0.0549529083
2321.87402,0.0540422797
2320.58838,0.0529987328
2319.30273,0.0515812561
2318.01709,0.0498586781
2316.73145,0.0481407642
2315.44580,0.0467292555
2314.16016,0.0457150191
2312.87451,0.0449410193
2311.58887,0.0441440120
2310.30322,0.0431663543
2309.01758,0.0420359075
2307.73193,0.0408666693
2306.44629,0.0397357680
2305.16064,0.0386705697
2303.87500,0.0376965888
2302.58936,0.0368488953
2301.30371,0.0361306071
2300.01807,0.0354879871
2298.73242,0.0348513201
2297.44678,0.0342015736
2296.16113,0.0335740559
2294.87549,0.0329876617
2293.58984,0.0324075483
2292.30420,0.0318059847
2291.01855,0.0312222745
2289.73291,0.0307140443
2288.44727,0.0302757379
2287.16162,0.0298547931
2285.87598,0.0294343326
2284.59033,0.0290502608
2283.30469,0.0287394803
2282.01904,0.0285180826
2280.73340,0.0283998717
2279.44775,0.0283898152
2278.16211,0.0284547601
2276.87646,0.0285316017
2275.59082,0.0285687000
2274.30518,0.0285455938
2273.01953,0.0284692980
2271.73389,0.0283741448
2270.44824,0.0283166710
2269.16260,0.0283384696
2267.87695,0.0284199361
2266.59131,0.0284776464
2265.30566,0.0284239985
2264.02002,0.0282403920
2262.73438,0.0279917791
2261.44873,0.0277651940
2260.16309,0.0275983866
2258.87744,0.0274746362
2257.59180,0.0273613911
2256.30615,0.0272346176
2255.02051,0.0270828400
2253.73486,0.0269193240
2252.44922,0.0267873369
2251.16357,0.0267237145
2249.87793,0.0267215688
2248.59229,0.0267426837
2247.30664,0.0267630275
2246.02100,0.0267829597
2244.73535,0.0267924871
2243.44971,0.0267441422
2242.16406,0.0265812203
2240.87842,0.0262986850
2239.59277,0.0259763431
2238.30713,0.0257357825
2237.02148,0.0256410893
2235.73584,0.0256401841
2234.45020,0.0256184340
2233.16455,0.0255138837
2231.87891,0.0253659431
2230.59326,0.0252519865
2229.30762,0.0252040606
2228.02197,0.0251984335
2226.73633,0.0252019744
2225.45068,0.0252013691
2224.16504,0.0251971725
2222.87939,0.0251873247
2221.59375,0.0251569040
2220.30811,0.0250811204
2219.02246,0.0249499697
2217.73682,0.0247941054
2216.45117,0.0246681627
2215.16553,0.0246019978
2213.87988,0.0245789886
2212.59424,0.0245695934
2211.30859,0.0245663580
2210.02295,0.0245781932
2208.73730,0.0246085729
2207.45166,0.0246573966
2206.16602,0.0247297045
2204.88037,0.0248180050
2203.59473,0.0248798691
2202.30908,0.0248628464
2201.02344,0.0247623138
2199.73779,0.0246366542
2198.45215,0.0245555118
2197.16650,0.0245355181
2195.88086,0.0245340113
2194.59521,0.0244944058
2193.30957,0.0243929178
2192.02393,0.0242469460
2190.73828,0.0240900759
2189.45264,0.0239489898
2188.16699,0.0238462333
2186.88135,0.0238081962
2185.59570,0.0238498729
2184.31006,0.0239550360
2183.02441,0.0240871739
2181.73877,0.0242161229
2180.45313,0.0243182816
2179.16748,0.0243667141
2177.88184,0.0243477412
2176.59619,0.0242892634
2175.31055,0.0242517069
2174.02490,0.0242796838
2172.73926,0.0243642777
2171.45361,0.0244561452
2170.16797,0.0245131385
2168.88232,0.0245314632
2167.59668,0.0245235469
2166.31104,0.0244825464
2165.02539,0.0243965853
2163.73975,0.0242963787
2162.45410,0.0242505576
2161.16846,0.0243004598
2159.88281,0.0244295839
2158.59717,0.0246024653
2157.31152,0.0247993134
2156.02588,0.0249943864
2154.74023,0.0251342207
2153.45459,0.0251737460
2152.16895,0.0251227301
2150.88330,0.0250410568
2149.59766,0.0249899700
2148.31201,0.0249999780
2147.02637,0.0250781607
2145.74072,0.0252196956
2144.45508,0.0253976099
2143.16943,0.0255546253
2141.88379,0.0256349649
2140.59814,0.0256366953
2139.31250,0.0256215669
2138.02686,0.0256629195
2136.74121,0.0257856082
2135.45557,0.0259583723
2134.16992,0.0261327419
2132.88428,0.0262764916
2131.59863,0.0263744872
2130.31299,0.0264213327
2129.02734,0.0264252927
2127.74170,0.0264144298
2126.45605,0.0264202598
2125.17041,0.0264520068
2123.88477,0.0264985058
2122.59912,0.0265595615
2121.31348,0.0266623851
2120.02783,0.0268286671
2118.74219,0.0270302203
2117.45654,0.0271991212
2116.17090,0.0272904057
2114.88525,0.0273264349
2113.59961,0.0273724478
2112.31396,0.0274736136
2111.02832,0.0276221931
2109.74268,0.0277817529
2108.45703,0.0279287249
2107.17139,0.0280670524
2105.88574,0.0282099210
2104.60010,0.0283582304
2103.31445,0.0285000335
2102.02881,0.0286280625
2100.74316,0.0287511218
2099.45752,0.0288898479
2098.17188,0.0290553235
2096.88623,0.0292278994
2095.60059,0.0293673016
2094.31494,0.0294562466
2093.02930,0.0295284167
2091.74365,0.0296315271
2090.45801,0.0297743883
2089.17236,0.0299270563
2087.88672,0.0300727617
2086.60107,0.0302288942
2085.31543,0.0304119550
2084.02979,0.0306061227
2082.74414,0.0307778958
2081.45850,0.0309131015
2080.17285,0.0310293585
2078.88721,0.0311555471
2077.60156,0.0313048624
2076.31592,0.0314723738
2075.03027,0.0316558816
2073.74463,0.0318576209
2072.45898,0.0320617445
2071.17334,0.0322274081
2069.88770,0.0323273651
2068.60205,0.0323872976
2067.31641,0.0324732624
2066.03076,0.0326360688
2064.74512,0.0328644849
2063.45947,0.0330877677
2062.17383,0.0332383625
2060.88818,0.0333187133
2059.60254,0.0333962850
2058.31689,0.0335287787
2057.03125,0.0337017961
2055.74561,0.0338550434
2054.45996,0.0339580104
2053.17432,0.0340414904
2051.88867,0.0341518931
2050.60303,0.0343002826
2049.31738,0.0344675556
2048.03174,0.0346456878
2046.74609,0.0348507576
2045.46045,0.0350888744
2044.17480,0.0353312194
2042.88916,0.0355365314
2041.60352,0.0356938243
2040.31787,0.0358313024
2039.03223,0.0359842032
2037.74658,0.0361606516
2036.46094,0.0363308899
2035.17529,0.0364502706
2033.88965,0.0365022682
2032.60400,0.0365240350
2031.31836,0.0365816504
2030.03271,0.0367106982
2028.74707,0.0368871577
2027.46143,0.0370596871
2026.17578,0.0371992327
2024.89014,0.0373112038
2023.60449,0.0374129377
2022.31885,0.0375144891
2021.03320,0.0376236625
2019.74756,0.0377515890
2018.46191,0.0378974527
2017.17627,0.0380297266
2015.89063,0.0381043777
2014.60498,0.0381156281
2013.31934,0.0381115340
2012.03369,0.0381478742
2010.74805,0.0382361189
2009.46240,0.0383414030
2008.17676,0.0384274013
2006.89111,0.0384920798
2005.60547,0.0385590084
2004.31982,0.0386346318
2003.03418,0.0386902913
2001.74854,0.0386966057
2000.46289,0.0386737920
1999.17725,0.0386861898
1997.89160,0.0387767777
1996.60596,0.0389209241
1995.32031,0.0390602462
1994.03467,0.0391590409
1992.74902,0.0392075181
1991.46338,0.0391935781
1990.17773,0.0391167253
1988.89209,0.0390237980
1987.60645,0.0389815159
1986.32080,0.0390119292
1985.03516,0.0390807502
1983.74951,0.0391481072
1982.46387,0.0392006561
1981.17822,0.0392295569
1979.89258,0.0392142050
1978.60693,0.0391498953
1977.32129,0.0390665866
1976.03564,0.0390014239
1974.75000,0.0389699899
1973.46436,0.0389694832
1972.17871,0.0389881171
1970.89307,0.0390053317
1969.60742,0.0390035473
1968.32178,0.0389838107
1967.03613,0.0389530882
1965.75049,0.0389032848
1964.46484,0.0388248675
1963.17920,0.0387324877
1961.89355,0.0386576094
1960.60791,0.0386211388
1959.32227,0.0386229195
1958.03662,0.0386417061
1956.75098,0.0386404321
1955.46533,0.0385864750
1954.17969,0.0384769775
1952.89404,0.0383422822
1951.60840,0.0382215604
1950.32275,0.0381416567
1949.03711,0.0381120667
1947.75146,0.0381300710
1946.46582,0.0381876975
1945.18018,0.0382731520
1943.89453,0.0383522101
1942.60889,0.0383564755
1941.32324,0.0382365435
1940.03760,0.0380322151
1938.75195,0.0378300957
1937.46631,0.0376650505
1936.18066,0.0375073776
1934.89502,0.0373250805
1933.60938,0.0371244512
1932.32373,0.0369344801
1931.03809,0.0367762819
1929.75244,0.0366559960
1928.46680,0.0365673155
1927.18115,0.0365057588
1925.89551,0.0364881046
1924.60986,0.0365339704
1923.32422,0.0366068482
1922.03857,0.0366125964
1920.75293,0.0365103260
1919.46729,0.0363669209
1918.18164,0.0362528227
1916.89600,0.0361485519
1915.61035,0.0360023975
1914.32471,0.0358303748
1913.03906,0.0356886536
1911.75342,0.0355954506
1910.46777,0.0355136096
1909.18213,0.0353853628
1907.89648,0.0351818614
1906.61084,0.0349320807
1905.32520,0.0346910208
1904.03955,0.0344826877
1902.75391,0.0342868082
1901.46826,0.0340778008
1900.18262,0.0338639431
1898.89697,0.0336844549
1897.61133,0.0335778892
1896.32568,0.0335433781
1895.04004,0.0335267447
1893.75439,0.0334716849
1892.46875,0.0333911665
1891.18311,0.0333414376
1889.89746,0.0333300345
1888.61182,0.0332942829
1887.32617,0.0331835970
1886.04053,0.0330124348
1884.75488,0.0328094549
1883.46924,0.0325867869
1882.18359,0.0323612504
1880.89795,0.0321551189
1879.61230,0.0319693983
1878.32666,0.0317831412
1877.04102,0.0315902866
1875.75537,0.0314223357
1874.46973,0.0313300714
1873.18408,0.0313458182
1871.89844,0.0314727649
1870.61279,0.0316916369
1869.32715,0.0319254324
1868.04150,0.0320004374
1866.75586,0.0317884088
1865.47021,0.0313910618
1864.18457,0.0310070328
1862.89893,0.0307321064
1861.61328,0.0305475183
1860.32764,0.0303952135
1859.04199,0.0302354693
1857.75635,0.0300594177
1856.47070,0.0298790261
1855.18506,0.0297145136
1853.89941,0.0295805931
1852.61377,0.0294818152
1851.32813,0.0294198431
1850.04248,0.0293972977
1848.75684,0.0294153597
1847.47119,0.0294759702
1846.18555,0.0295842513
1844.89990,0.0297133457
1843.61426,0.0297600832
1842.32861,0.0296252072
1841.04297,0.0293642022
1839.75732,0.0291254912
1838.47168,0.0290033519
1837.18604,0.0289776698
1835.90039,0.0289468970
1834.61475,0.0288545750
1833.32910,0.0287661683
1832.04346,0.0287912004
1830.75781,0.0289609823
1829.47217,0.0291666556
1828.18652,0.0292489957
1826.90088,0.0291799996
1825.61523,0.0290368609
1824.32959,0.0288599432
1823.04395,0.0286413077
1821.75830,0.0283968635
1820.47266,0.0281747356
1819.18701,0.0280078519
1817.90137,0.0279015936
1816.61572,0.0278503038
1815.33008,0.0278370846
1814.04443,0.0278339144
1812.75879,0.0278265420
1811.47314,0.0278267078
1810.18750,0.0278379973
1808.90186,0.0278364513
1807.61621,0.0278099310
1806.33057,0.0277807023
1805.04492,0.0277845357
1803.75928,0.0278609060
1802.47363,0.0280394945
1801.18799,0.0282904226
1799.90234,0.0285139382
1798.61670,0.0286398698
1797.33105,0.0287065692
1796.04541,0.0288104825
1794.75977,0.0290603880
1793.47412,0.0295391940
1792.18848,0.0301496405
1790.90283,0.0305452682
1789.61719,0.0305534061
1788.33154,0.0304231457
1787.04590,0.0304645170
1785.76025,0.0308104921
1784.47461,0.0314102620
1783.18896,0.0321126133
1781.90332,0.0328263417
1780.61768,0.0335771888
1779.33203,0.0343966596
1778.04639,0.0352503322
1776.76074,0.0361286923
1775.47510,0.0371338092
1774.18945,0.0384568125
1772.90381,0.0402734987
1771.61816,0.0424844176
1770.33252,0.0446634144
1769.04688,0.0466424376
1767.76123,0.0486673750
1766.47559,0.0508925095
1765.18994,0.0532707497
1763.90430,0.0559294969
1762.61865,0.0592689216
1761.33301,0.0633917302
1760.04736,0.0677285865
1758.76172,0.0719311461
1757.47607,0.0764041245
1756.19043,0.0813804269
1754.90479,0.0864177644
1753.61914,0.0912713706
1752.33350,0.0965237021
1751.04785,0.1030543670
1749.76221,0.1110316515
1748.47656,0.1193648502
1747.19092,0.1268993169
1745.90527,0.1336576790
1744.61963,0.1402099878
1743.33398,0.1468362361
1742.04834,0.1535904706
1740.76270,0.1606447995
1739.47705,0.1678663641
1738.19141,0.1743590236
1736.90576,0.1796169430
1735.62012,0.1846643090
1734.33447,0.1912855357
1733.04883,0.1993941516
1731.76318,0.2061123401
1730.47754,0.2103997618
1729.19189,0.2135358453
1727.90625,0.2162971050
1726.62061,0.2187381387
1725.33496,0.2208445668
1724.04932,0.2226307988
1722.76367,0.2240267247
1721.47803,0.2249803394
1720.19238,0.2255560756
1718.90674,0.2258100361
1717.62109,0.2254629582
1716.33545,0.2237587869
1715.04980,0.2206150293
1713.76416,0.2170624435
1712.47852,0.2136557400
1711.19287,0.2102199346
1709.90723,0.2065793127
1708.62158,0.2027740628
1707.33594,0.1986803412
1706.05029,0.1939257085
1704.76465,0.1886511594
1703.47900,0.1836416423
1702.19336,0.1790070981
1700.90771,0.1737896800
1699.62207,0.1673706621
1698.33643,0.1607767791
1697.05078,0.1547268778
1695.76514,0.1483584344
1694.47949,0.1416591853
1693.19385,0.1357700974
1691.90820,0.1309200078
1690.62256,0.1264045984
1689.33691,0.1217855737
1688.05127,0.1173829436
1686.76563,0.1136256829
1685.47998,0.1101745293
1684.19434,0.1060395315
1682.90869,0.1011402830
1681.62305,0.0968869701
1680.33740,0.0937043428
1679.05176,0.0911181793
1677.76611,0.0888057053
1676.48047,0.0865437835
1675.19482,0.0841293335
1673.90918,0.0816753805
1672.62354,0.0795480162
1671.33789,0.0777399614
1670.05225,0.0758552030
1668.76660,0.0737825334
1667.48096,0.0719479173
1666.19531,0.0705542639
1664.90967,0.0694566369
1663.62402,0.0686893240
1662.33838,0.0684264898
1661.05273,0.0684602484
1659.76709,0.0682743341
1658.48145,0.0677752122
1657.19580,0.0673349351
1655.91016,0.0674299821
1654.62451,0.0684543401
1653.33887,0.0701395795
1652.05322,0.0706999749
1650.76758,0.0697962120
1649.48193,0.0691446662
1648.19629,0.0693912059
1646.91064,0.0702477172
1645.62500,0.0709155127
1644.33936,0.0709862337
1643.05371,0.0708081797
1641.76807,0.0706399977
1640.48242,0.0705197901
1639.19678,0.0705383345
1637.91113,0.0709388256
1636.62549,0.0718844384
1635.33984,0.0728106573
1634.05420,0.0727442876
1632.76855,0.0720164180
1631.48291,0.0715196282
1630.19727,0.0715835541
1628.91162,0.0720722452
1627.62598,0.0725590736
1626.34033,0.0726357996
1625.05469,0.0722504035
1623.76904,0.0715653300
1622.48340,0.0706511438
1621.19775,0.0695355833
1619.91211,0.0683644712
1618.62646,0.0672748238
1617.34082,0.0662046075
1616.05518,0.0648709834
1614.76953,0.0631199852
1613.48389,0.0611294508
1612.19824,0.0590974875
1610.91260,0.0571529008
1609.62695,0.0553967357
1608.34131,0.0538415089
1607.05566,0.0523971021
1605.77002,0.0509632379
1604.48438,0.0494741313
1603.19873,0.0478996076
1601.91309,0.0462853760
1600.62744,0.0447422042
1599.34180,0.0433499739
1598.05615,0.0421125330
1596.77051,0.0410012119
1595.48486,0.0399693698
1594.19922,0.0389327258
1592.91357,0.0378080122
1591.62793,0.0366005450
1590.34229,0.0354100987
1589.05664,0.0343420841
1587.77100,0.0334290452
1586.48535,0.0326490700
1585.19971,0.0319799297
1583.91406,0.0313844122
1582.62842,0.0307819787
1581.34277,0.0301254727
1580.05713,0.0294963848
1578.77148,0.0290312730
1577.48584,0.0287250131
1576.20020,0.0283071119
1574.91455,0.0275492910
1573.62891,0.0267044734
1572.34326,0.0260670427
1571.05762,0.0256349649
1569.77197,0.0252438094
1568.48633,0.0247206613
1567.20068,0.0240415093
1565.91504,0.0232981332
1564.62939,0.0225935262
1563.34375,0.0220583323
1562.05811,0.0218448918
1560.77246,0.0221127216
1559.48682,0.0229464918
1558.20117,0.0237099063
1556.91553,0.0234230813
1555.62988,0.0225842800
1554.34424,0.0217410270
1553.05859,0.0209732689
1551.77295,0.0203026589
1550.48730,0.0197440293
1549.20166,0.0192838274
1547.91602,0.0189474225
1546.63037,0.0188235398
1545.34473,0.0189913381
1544.05908,0.0194514766
1542.77344,0.0201142654
1541.48779,0.0207527298
1540.20215,0.0207558256
1538.91650,0.0197285600
1537.63086,0.0185225308
1536.34521,0.0177945215
1535.05957,0.0175039247
1533.77393,0.0173812080
1532.48828,0.0171406735
1531.20264,0.0167666692
1529.91699,0.0164890718
1528.63135,0.0164316706
1527.34570,0.0165296476
1526.06006,0.0166325420
1524.77441,0.0166855585
1523.48877,0.0167896729
1522.20313,0.0169738866
1520.91748,0.0170220733
1519.63184,0.0167673957
1518.34619,0.0163690373
1517.06055,0.0159804411
1515.77490,0.0155642871
1514.48926,0.0150964558
1513.20361,0.0147076305
1511.91797,0.0145771382
1510.63232,0.0148238074
1509.34668,0.0154944267
1508.06104,0.0165053681
1506.77539,0.0172330998
1505.48975,0.0168210771
1504.20410,0.0158220176
1502.91846,0.0149952918
1501.63281,0.0144938650
1500.34717,0.0143442499
1499.06152,0.0145772453
1497.77588,0.0150856003
1496.49023,0.0155183030
1495.20459,0.0156001095
1493.91895,0.0154761598
1492.63330,0.0154465185
1491.34766,0.0156883430
1490.06201,0.0161822066
1488.77637,0.0166501589
1487.49072,0.0167992786
1486.20508,0.0166978780
1484.91943,0.0165772997
1483.63379,0.0165766813
1482.34814,0.0167354867
1481.06250,0.0170148313
1479.77686,0.0173469651
1478.49121,0.0177175067
1477.20557,0.0181713831
1475.91992,0.0187579393
1474.63428,0.0195264444
1473.34863,0.0204785187
1472.06299,0.0213535503
1470.77734,0.0217980202
1469.49170,0.0219316818
1468.20605,0.0221453290
1466.92041,0.0227051489
1465.63477,0.0236724522
1464.34912,0.0248596407
1463.06348,0.0259626582
1461.77783,0.0269124378
1460.49219,0.0279247221
1459.20654,0.0294103734
1457.92090,0.0319088586
1456.63525,0.0352132134
1455.34961,0.0377896242
1454.06396,0.0392499566
1452.77832,0.0404377207
1451.49268,0.0418792367
1450.20703,0.0436916612
1448.92139,0.0458381586
1447.63574,0.0482081547
1446.35010,0.0505701825
1445.06445,0.0526929274
1443.77881,0.0545477495
1442.49316,0.0562209710
1441.20752,0.0577245839
1439.92188,0.0590427108
1438.63623,0.0603202805
1437.35059,0.0618278272
1436.06494,0.0635424480
1434.77930,0.0649822950
1433.49365,0.0659642741
1432.20801,0.0668114498
1430.92236,0.0677843541
1429.63672,0.0688086599
1428.35107,0.0696470588
1427.06543,0.0702685639
1425.77979,0.0708686784
1424.49414,0.0715969205
1423.20850,0.0724234134
1421.92285,0.0732854679
1420.63721,0.0743070990
1419.35156,0.0756993443
1418.06592,0.0773195997
1416.78027,0.0786727071
1415.49463,0.0796566829
1414.20898,0.0805720314
1412.92334,0.0816343352
1411.63770,0.0828606933
1410.35205,0.0841646865
1409.06641,0.0854668394
1407.78076,0.0867840275
1406.49512,0.0881996900
1405.20947,0.0896536559
1403.92383,0.0908313915
1402.63818,0.0914977863
1401.35254,0.0917834714
1400.06689,0.0919418260
1398.78125,0.0920543149
1397.49561,0.0920289159
1396.20996,0.0917700455
1394.92432,0.0912675411
1393.63867,0.0905820727
1392.35303,0.0898202658
1391.06738,0.0890755281
1389.78174,0.0883876309
1388.49609,0.0877345800
1387.21045,0.0870275050
1385.92480,0.0861928463
1384.63916,0.0852987245
1383.35352,0.0844876990
1382.06787,0.0838362947
1380.78223,0.0833446309
1379.49658,0.0829954594
1378.21094,0.0827928782
1376.92529,0.0827625394
1375.63965,0.0829130784
1374.35400,0.0831720755
1373.06836,0.0834027454
1371.78271,0.0835773051
1370.49707,0.0838385895
1369.21143,0.0843210369
1367.92578,0.0850058496
1366.64014,0.0857899338
1365.35449,0.0866651759
1364.06885,0.0877306536
1362.78320,0.0890016109
1361.49756,0.0902849361
1360.21191,0.0913875178
1358.92627,0.0923531204
1357.64063,0.0933429450
1356.35498,0.0944515020
1355.06934,0.0956679285
1353.78369,0.0969214961
1352.49805,0.0981515571
1351.21240,0.0993525684
1349.92676,0.1005597562
1348.64111,0.1017978117
1347.35547,0.1030375585
1346.06982,0.1042102575
1344.78418,0.1052786112
1343.49854,0.1062947363
1342.21289,0.1073732525
1340.92725,0.1085929573
1339.64160,0.1098889932
1338.35596,0.1110453606
1337.07031,0.1118890569
1335.78467,0.1124660298
1334.49902,0.1129425690
1333.21338,0.1134350970
1331.92773,0.1139757559
1330.64209,0.1145643219
1329.35645,0.1151819080
1328.07080,0.1157688871
1326.78516,0.1162683666
1325.49951,0.1167055964
1324.21387,0.1171627715
1322.92822,0.1176717654
1321.64258,0.1181843579
1320.35693,0.1186312810
1319.07129,0.1189587787
1317.78564,0.1191383377
1316.50000,0.1191979647
1315.21436,0.1192184389
1313.92871,0.1192578077
1312.64307,0.1192984506
1311.35742,0.1192824543
1310.07178,0.1191861033
1308.78613,0.1190410405
1307.50049,0.1188931540
1306.21484,0.1187515855
1304.92920,0.1185825244
1303.64355,0.1183484867
1302.35791,0.1180412471
1301.07227,0.1176736578
1299.78662,0.1172648594
1298.50098,0.1168465689
1297.21533,0.1164638326
1295.92969,0.1161428243
1294.64404,0.1158497259
1293.35840,0.1154997274
1292.07275,0.1150336713
1290.78711,0.1145000979
1289.50146,0.1140323654
1288.21582,0.1137222126
1286.93018,0.1135272011
1285.64453,0.1133342311
1284.35889,0.1131009087
1283.07324,0.1129033715
1281.78760,0.1128512174
1280.50195,0.1129756197
1279.21631,0.1131970882
1277.93066,0.1134046540
1276.64502,0.1135645509
1275.35938,0.1137547642
1274.07373,0.1141057387
1272.78809,0.1147128940
1271.50244,0.1155862585
1270.21680,0.1166659817
1268.93115,0.1178950146
1267.64551,0.1192764118
1266.35986,0.1208419129
1265.07422,0.1225885972
1263.78857,0.1244967952
1262.50293,0.1266038120
1261.21729,0.1289976835
1259.93164,0.1317160726
1258.64600,0.1347005665
1257.36035,0.1378786862
1256.07471,0.1412579864
1254.78906,0.1449090838
1253.50342,0.1488690227
1252.21777,0.1530798525
1250.93213,0.1574242562
1249.64648,0.1618197262
1248.36084,0.1662599593
1247.07520,0.1707671434
1245.78955,0.1753381938
1244.50391,0.1799467504
1243.21826,0.1845458150
1241.93262,0.1890391409
1240.64697,0.1932959706
1239.36133,0.1972523332
1238.07568,0.2009790838
1236.79004,0.2046102732
1235.50439,0.2081963718
1234.21875,0.2116384357
1232.93311,0.2147630602
1231.64746,0.2174504995
1230.36182,0.2196957916
1229.07617,0.2215596437
1227.79053,0.2230797708
1226.50488,0.2242265940
1225.21924,0.2249206752
1223.93359,0.2250865996
1222.64795,0.2247068286
1221.36230,0.2238358408
1220.07666,0.2225526273
1218.79102,0.2209000587
1217.50537,0.2188764811
1216.21973,0.2164774537
1214.93408,0.2137384117
1213.64844,0.2107443810
1212.36279,0.2076068968
1211.07715,0.2044153959
1209.79150,0.2011891603
1208.50586,0.1978799254
1207.22021,0.1944291890
1205.93457,0.1908351183
1204.64893,0.1871694624
1203.36328,0.1835281998
1202.07764,0.1799566299
1200.79199,0.1764244139
1199.50635,0.1728772372
1198.22070,0.1692970097
1196.93506,0.1657022536
1195.64941,0.1621171534
1194.36377,0.1585563868
1193.07813,0.1550151557
1191.79248,0.1514570266
1190.50684,0.1478415132
1189.22119,0.1441778243
1187.93555,0.1405250430
1186.64990,0.1369302720
1185.36426,0.1333843619
1184.07861,0.1298210174
1182.79297,0.1261270791
1181.50732,0.1221864223
1180.22168,0.1179766133
1178.93604,0.1136166379
1177.65039,0.1092770100
1176.36475,0.1050498411
1175.07910,0.1009388193
1173.79346,0.0969496742
1172.50781,0.0931415558
1171.22217,0.0895958692
1169.93652,0.0863782912
1168.65088,0.0835308731
1167.36523,0.0810699910
1166.07959,0.0789778084
1164.79395,0.0772128701
1163.50830,0.0757448003
1162.22266,0.0745852068
1160.93701,0.0737759992
1159.65137,0.0733388290
1158.36572,0.0732339621
1157.08008,0.0733801425
1155.79443,0.0737244859
1154.50879,0.0742753968
1153.22314,0.0750460550
1151.93750,0.0759836435
1150.65186,0.0769954473
1149.36621,0.0780392885
1148.08057,0.0791346654
1146.79492,0.0802753121
1145.50928,0.0813823715
1144.22363,0.0823600963
1142.93799,0.0831569955
1141.65234,0.0837659389
1140.36670,0.0842217803
1139.08105,0.0846038088
1137.79541,0.0849817917
1136.50977,0.0853411034
1135.22412,0.0856068507
1133.93848,0.0857453942
1132.65283,0.0858030841
1131.36719,0.0858329833
1130.08154,0.0858180001
1128.79590,0.0856803134
1127.51025,0.0853579938
1126.22461,0.0848690048
1124.93896,0.0842906460
1123.65332,0.0836663768
1122.36768,0.0829496160
1121.08203,0.0820632055
1119.79639,0.0809970275
1118.51074,0.0798156559
1117.22510,0.0785821751
1115.93945,0.0773155168
1114.65381,0.0760270357
1113.36816,0.0747627020
1112.08252,0.0735781044
1110.79688,0.0724766627
1109.51123,0.0713927820
1108.22559,0.0702488422
1106.93994,0.0690219402
1105.65430,0.0677473247
1104.36865,0.0664742887
1103.08301,0.0652414337
1101.79736,0.0640839189
1100.51172,0.0630289614
1099.22607,0.0620807931
1097.94043,0.0612430833
1096.65479,0.0605547167
1095.36914,0.0600623675
1094.08350,0.0597583875
1092.79785,0.0596047789
1091.51221,0.0596321039
1090.22656,0.0599416420
1088.94092,0.0605630539
1087.65527,0.0613659881
1086.36963,0.0621666051
1085.08398,0.0628886744
1083.79834,0.0635814369
1082.51270,0.0643043369
1081.22705,0.0650457740
1079.94141,0.0657258704
1078.65576,0.0662349984
1077.37012,0.0664749816
1076.08447,0.0664064139
1074.79883,0.0660817400
1073.51318,0.0656371936
1072.22754,0.0652377382
1070.94189,0.0650030151
1069.65625,0.0649577975
1068.37061,0.0650507957
1067.08496,0.0652251318
1065.79932,0.0654751137
1064.51367,0.0658343956
1063.22803,0.0663131922
1061.94238,0.0668531731
1060.65674,0.0673514754
1059.37109,0.0677208155
1058.08545,0.0679237396
1056.79980,0.0679557025
1055.51416,0.0678274482
1054.22852,0.0675661564
1052.94287,0.0672023222
1051.65723,0.0667382702
1050.37158,0.0661561340
1049.08594,0.0654665008
1047.80029,0.0647270083
1046.51465,0.0639982745
1045.22900,0.0633011311
1043.94336,0.0626246855
1042.65771,0.0619653277
1041.37207,0.0613480173
1040.08643,0.0608051829
1038.80078,0.0603289083
1037.51514,0.0598526113
1036.22949,0.0593084432
1034.94385,0.0587075204
1033.65820,0.0581364036
1032.37256,0.0576651357
1031.08691,0.0572888926
1029.80127,0.0569706932
1028.51563,0.0567012541
1027.22998,0.0564891137
1025.94434,0.0563186854
1024.65869,0.0561521985
1023.37305,0.0559693351
1022.08740,0.0557874218
1020.80176,0.0556467809
1019.51611,0.0555751696
1018.23047,0.0555656962
1016.94482,0.0555904880
1015.65918,0.0556401871
1014.37354,0.0557309426
1013.08789,0.0558663420
1011.80225,0.0560193993
1010.51660,0.0561684966
1009.23096,0.0563238934
1007.94531,0.0565021969
1006.65967,0.0566930547
1005.37402,0.0568599999
1004.08838,0.0569533184
1002.80273,0.0569327138
1001.51709,0.0568082780
1000.23145,0.0566521734
998.94580,0.0565402359
997.66016,0.0564872213
996.37451,0.0564607531
995.08887,0.0564363450
993.80322,0.0564078689
992.51758,0.0563631840
991.23193,0.0562880374
989.94629,0.0561865829
988.66064,0.0560839511
987.37500,0.0560152680
986.08936,0.0560064092
984.80371,0.0560352728
983.51807,0.0560233146
982.23242,0.0559005216
980.94678,0.0556806475
979.66113,0.0554402694
978.37549,0.0552361459
977.08984,0.0550706387
975.80420,0.0549258254
974.51855,0.0547993518
973.23291,0.0547065921
971.94727,0.0546635501
970.66162,0.0546626113
969.37598,0.0546594337
968.09033,0.0546085685
966.80469,0.0545170791
965.51904,0.0544361137
964.23340,0.0543879345
962.94775,0.0543287583
961.66211,0.0541936681
960.37646,0.0539551303
959.09082,0.0536367036
957.80518,0.0533060133
956.51953,0.0530674085
955.23389,0.0530115440
953.94824,0.0531350113
952.66260,0.0533336140
951.37695,0.0535046272
950.09131,0.0536424741
948.80566,0.0538083985
947.52002,0.0540338084
946.23438,0.0542790703
944.94873,0.0544749387
943.66309,0.0545729920
942.37744,0.0545625426
941.09180,0.0544550121
939.80615,0.0542484224
938.52051,0.0539086759
937.23486,0.0534021370
935.94922,0.0527434684
934.66357,0.0519912764
933.37793,0.0512111448
932.09229,0.0504609346
930.80664,0.0497866757
929.52100,0.0491892956
928.23535,0.0486084260
926.94971,0.0479809456
925.66406,0.0473120585
924.37842,0.0466605350
923.09277,0.0460578278
921.80713,0.0454572439
920.52148,0.0447640419
919.23584,0.0439206101
917.95020,0.0429867208
916.66455,0.0421322435
915.37891,0.0415145867
914.09326,0.0411588475
912.80762,0.0409809537
911.52197,0.0409168378
910.23633,0.0409875587
908.95068,0.0412312523
907.66504,0.0416110158
906.37939,0.0420266949
905.09375,0.0424099751
903.80811,0.0427771769
902.52246,0.0431625508
901.23682,0.0435172766
899.95117,0.0437141582
