3999.64014,0.0080038048
3998.35449,0.0077313567
3997.06885,0.0074785398
3995.78320,0.0075240238
3994.49756,0.0076805805
3993.21191,0.0075459648
3991.92627,0.0070555070
3990.64063,0.0065468131
3989.35498,0.0063317972
3988.06934,0.0064206389
3986.78369,0.0066581718
3985.49805,0.0069330777
3984.21240,0.0072097373
3982.92676,0.0075033489
3981.64111,0.0078617074
3980.35547,0.0082695112
3979.06982,0.0085603045
3977.78418,0.0085407933
3976.49854,0.0082438411
3975.21289,0.0079672346
3973.92725,0.0080017215
3972.64160,0.0083263721
3971.35596,0.0086371116
3970.07031,0.0086857015
3968.78467,0.0085194893
3967.49902,0.0083556361
3966.21338,0.0083048940
3964.92773,0.0083080325
3963.64209,0.0082776118
3962.35645,0.0082020285
3961.07080,0.0081419395
3959.78516,0.0082175396
3958.49951,0.0085337181
3957.21387,0.0090117101
3955.92822,0.0093385708
3954.64258,0.0092001334
3953.35693,0.0085898209
3952.07129,0.0078457342
3950.78564,0.0073987246
3949.50000,0.0074745105
3948.21436,0.0079071000
3946.92871,0.0082405442
3945.64307,0.0081760176
3944.35742,0.0078789461
3943.07178,0.0077332542
3941.78613,0.0078545650
3940.50049,0.0079498598
3939.21484,0.0077531226
3937.92920,0.0073962230
3936.64355,0.0071978937
3935.35791,0.0073119733
3934.07227,0.0076760757
3932.78662,0.0081269052
3931.50098,0.0084240939
3930.21533,0.0083100125
3928.92969,0.0078132898
3927.64404,0.0073512001
3926.35840,0.0073512271
3925.07275,0.0078750458
3923.78711,0.0085858349
3922.50146,0.0090559535
3921.21582,0.0091623534
3919.93018,0.0091151372
3918.64453,0.0091787176
3917.35889,0.0094608059
3916.07324,0.0098570082
3914.78760,0.0101612136
3913.50195,0.0102235703
3912.21631,0.0099918144
3910.93066,0.0095095951
3909.64502,0.0089574810
3908.35938,0.0086196316
3907.07373,0.0086922767
3905.78809,0.0091035590
3904.50244,0.0095136166
3903.21680,0.0095480150
3901.93115,0.0091922814
3900.64551,0.0087944129
3899.35986,0.0085805804
3898.07422,0.0085081905
3896.78857,0.0085250326
3895.50293,0.0086311968
3894.21729,0.0087853270
3892.93164,0.0089455368
3891.64600,0.0091484198
3890.36035,0.0094277123
3889.07471,0.0096663134
3887.78906,0.0097354027
3886.50342,0.0096760802
3885.21777,0.0096302908
3883.93213,0.0097025502
3882.64648,0.0099010477
3881.36084,0.0101266606
3880.07520,0.0101461103
3878.78955,0.0097708236
3877.50391,0.0092178229
3876.21826,0.0089525664
3874.93262,0.0092090983
3873.64697,0.0098633114
3872.36133,0.0106043927
3871.07568,0.0112013696
3869.79004,0.0115050031
3868.50439,0.0113332178
3867.21875,0.0107492749
3865.93311,0.0101760263
3864.64746,0.0099485079
3863.36182,0.0099849794
3862.07617,0.0098923873
3860.79053,0.0094823427
3859.50488,0.0089683942
3858.21924,0.0086033400
3856.93359,0.0084520457
3855.64795,0.0084713148
3854.36230,0.0086615644
3853.07666,0.0090705436
3851.79102,0.0094770780
3850.50537,0.0094555160
3849.21973,0.0090607638
3847.93408,0.0086201858
3846.64844,0.0083607817
3845.36279,0.0083794920
3844.07715,0.0087129036
3842.79150,0.0093803080
3841.50586,0.0102930656
3840.22021,0.0111440513
3838.93457,0.0115488097
3837.64893,0.0113707092
3836.36328,0.0108305058
3835.07764,0.0101898592
3833.79199,0.0095597375
3832.50635,0.0090639619
3831.22070,0.0088286763
3829.93506,0.0087816287
3828.64941,0.0086928848
3827.36377,0.0084343357
3826.07813,0.0080654565
3824.79248,0.0077123847
3823.50684,0.0074853348
3822.22119,0.0075538661
3820.93555,0.0081653092
3819.64990,0.0092488667
3818.36426,0.0101430090
3817.07861,0.0103029786
3815.79297,0.0097245481
3814.50732,0.0087703234
3813.22168,0.0079299286
3811.93604,0.0074332976
3810.65039,0.0072123432
3809.36475,0.0071492069
3808.07910,0.0072116060
3806.79346,0.0074684015
3805.50781,0.0079784403
3804.22217,0.0086428421
3802.93652,0.0093034217
3801.65088,0.0098766042
3800.36523,0.0102293734
3799.07959,0.0101243826
3797.79395,0.0094830310
3796.50830,0.0085170595
3795.22266,0.0076372935
3793.93701,0.0072077634
3792.65137,0.0072346884
3791.36572,0.0074309548
3790.08008,0.0075422241
3788.79443,0.0075410916
3787.50879,0.0076096063
3786.22314,0.0079222852
3784.93750,0.0084044850
3783.65186,0.0087721469
3782.36621,0.0088822022
3781.08057,0.0088893622
3779.79492,0.0089637171
3778.50928,0.0090364739
3777.22363,0.0089106318
3775.93799,0.0085258512
3774.65234,0.0079562413
3773.36670,0.0073059183
3772.08105,0.0067525227
3770.79541,0.0065637897
3769.50977,0.0069126668
3768.22412,0.0076264660
3766.93848,0.0082904343
3765.65283,0.0086367950
3764.36719,0.0086509492
3763.08154,0.0084493263
3761.79590,0.0081786830
3760.51025,0.0079682367
3759.22461,0.0079546850
3757.93896,0.0082612280
3756.65332,0.0088439193
3755.36768,0.0094902003
3754.08203,0.0100908382
3752.79639,0.0107730506
3751.51074,0.0117091918
3750.22510,0.0126562826
3748.93945,0.0128958654
3747.65381,0.0123305656
3746.36816,0.0116358530
3745.08252,0.0113323946
3743.79688,0.0114758974
3742.51123,0.0116720684
3741.22559,0.0115583530
3739.93994,0.0112256482
3738.65430,0.0109636215
3737.36865,0.0110528311
3736.08301,0.0116703138
3734.79736,0.0126360022
3733.51172,0.0132831503
3732.22607,0.0131447595
3730.94043,0.0125121241
3729.65479,0.0118788630
3728.36914,0.0114860246
3727.08350,0.0113857770
3725.79785,0.0115326745
3724.51221,0.0117579410
3723.22656,0.0118139284
3721.94092,0.0115838749
3720.65527,0.0111870263
3719.36963,0.0108142095
3718.08398,0.0105148777
3716.79834,0.0101875803
3715.51270,0.0097387368
3714.22705,0.0092131160
3712.94141,0.0088145165
3711.65576,0.0088274879
3710.37012,0.0093244743
3709.08447,0.0098333089
3707.79883,0.0098330975
3706.51318,0.0093898047
3705.22754,0.0089313481
3703.94189,0.0088604046
3702.65625,0.0093190512
3701.37061,0.0100357337
3700.08496,0.0104875630
3698.79932,0.0104417671
3697.51367,0.0100864926
3696.22803,0.0096525773
3694.94238,0.0092736445
3693.65674,0.0090790559
3692.37109,0.0091773160
3691.08545,0.0095155481
3689.79980,0.0097703468
3688.51416,0.0094894338
3687.22852,0.0086544342
3685.94287,0.0077766036
3684.65723,0.0071804184
3683.37158,0.0068547297
3682.08594,0.0067598843
3680.80029,0.0069530164
3679.51465,0.0074798833
3678.22900,0.0082484577
3676.94336,0.0090748258
3675.65771,0.0097605791
3674.37207,0.0100867851
3673.08643,0.0100644780
3671.80078,0.0100430185
3670.51514,0.0102251871
3669.22949,0.0103252456
3667.94385,0.0098276166
3666.65820,0.0087959990
3665.37256,0.0077870400
3664.08691,0.0071529704
3662.80127,0.0069615119
3661.51563,0.0071508386
3660.22998,0.0076026251
3658.94434,0.0081976485
3657.65869,0.0088504720
3656.37305,0.0094507281
3655.08740,0.0098527186
3653.80176,0.0101106837
3652.51611,0.0105943391
3651.23047,0.0117241638
3649.94482,0.0136624733
3648.65918,0.0158599801
3647.37354,0.0170282368
3646.08789,0.0168296061
3644.80225,0.0161434356
3643.51660,0.0155350985
3642.23096,0.0151337916
3640.94531,0.0149982106
3639.65967,0.0151905390
3638.37402,0.0156278554
3637.08838,0.0160232522
3635.80273,0.0161758903
3634.51709,0.0163265392
3633.23145,0.0170135926
3631.94580,0.0185042694
3630.66016,0.0205822438
3629.37451,0.0228322148
3628.08887,0.0246840548
3626.80322,0.0255167112
3625.51758,0.0254664216
3624.23193,0.0252062809
3622.94629,0.0251404457
3621.66064,0.0254045837
3620.37500,0.0260757003
3619.08936,0.0271409769
3617.80371,0.0282646175
3616.51807,0.0289439112
3615.23242,0.0290579833
3613.94678,0.0288631245
3612.66113,0.0287131239
3611.37549,0.0289482567
3610.08984,0.0296867080
3608.80420,0.0305988174
3607.51855,0.0310988165
3606.23291,0.0309586860
3604.94727,0.0306278747
3603.66162,0.0306937639
3602.37598,0.0313903354
3601.09033,0.0326251835
3599.80469,0.0340496637
3598.51904,0.0351441093
3597.23340,0.0355472639
3595.94775,0.0353195369
3594.66211,0.0348557197
3593.37646,0.0346114561
3592.09082,0.0347856320
3590.80518,0.0351772010
3589.51953,0.0353249311
3588.23389,0.0347400606
3586.94824,0.0333102457
3585.66260,0.0318195783
3584.37695,0.0313211344
3583.09131,0.0319623761
3581.80566,0.0331898518
3580.52002,0.0343123823
3579.23438,0.0347982831
3577.94873,0.0346112326
3576.66309,0.0342647359
3575.37744,0.0342760272
3574.09180,0.0346125476
3572.80615,0.0348553583
3571.52051,0.0348046198
3570.23486,0.0347078703
3568.94922,0.0348936468
3567.66357,0.0352762714
3566.37793,0.0352600142
3565.09229,0.0345342010
3563.80664,0.0337875783
3562.52100,0.0337135196
3561.23535,0.0340865366
3559.94971,0.0341466591
3558.66406,0.0334056467
3557.37842,0.0320687406
3556.09277,0.0306789018
3554.80713,0.0295587312
3553.52148,0.0287911706
3552.23584,0.0285285898
3550.95020,0.0290011354
3549.66455,0.0301835518
3548.37891,0.0317809172
3547.09326,0.0335227996
3545.80762,0.0350778773
3544.52197,0.0357706398
3543.23633,0.0349841788
3541.95068,0.0330782384
3540.66504,0.0312967636
3539.37939,0.0306635126
3538.09375,0.0311731230
3536.80811,0.0319789574
3535.52246,0.0322381109
3534.23682,0.0317883790
3532.95117,0.0310410075
3531.66553,0.0303557087
3530.37988,0.0296309218
3529.09424,0.0285129156
3527.80859,0.0270035788
3526.52295,0.0256992541
3525.23730,0.0251143090
3523.95166,0.0249353833
3522.66602,0.0243707113
3521.38037,0.0231498796
3520.09473,0.0218086615
3518.80908,0.0209801961
3517.52344,0.0207441766
3516.23779,0.0206477419
3514.95215,0.0201190338
3513.66650,0.0188394375
3512.38086,0.0168352555
3511.09521,0.0143376151
3509.80957,0.0116951242
3508.52393,0.0093175182
3507.23828,0.0074811736
3505.95264,0.0062883822
3504.66699,0.0059947758
3503.38135,0.0070823180
3502.09570,0.0094616804
3500.81006,0.0117886066
3499.52441,0.0126006650
3498.23877,0.0119594540
3496.95313,0.0111600403
3495.66748,0.0111805452
3494.38184,0.0117999911
3493.09619,0.0120836031
3491.81055,0.0114286691
3490.52490,0.0101557551
3489.23926,0.0092748338
3487.95361,0.0093494141
3486.66797,0.0095278248
3485.38232,0.0083642406
3484.09668,0.0057112575
3482.81104,0.0029457994
3481.52539,0.0011057018
3480.23975,-0.0001831822
3478.95410,-0.0014046284
3477.66846,-0.0018639258
3476.38281,-0.0007269940
3475.09717,0.0013123545
3473.81152,0.0023121957
3472.52588,0.0010057982
3471.24023,-0.0020020586
3469.95459,-0.0050398414
3468.66895,-0.0070884861
3467.38330,-0.0084958971
3466.09766,-0.0100583918
3464.81201,-0.0116353985
3463.52637,-0.0120746922
3462.24072,-0.0108303158
3460.95508,-0.0093076443
3459.66943,-0.0097970348
3458.38379,-0.0127171166
3457.09814,-0.0156656876
3455.81250,-0.0158035941
3454.52686,-0.0128407814
3453.24121,-0.0092908209
3451.95557,-0.0079948725
3450.66992,-0.0100629451
3449.38428,-0.0149608944
3448.09863,-0.0215387233
3446.81299,-0.0283281133
3445.52734,-0.0335922427
3444.24170,-0.0359001197
3442.95605,-0.0348097682
3441.67041,-0.0310121384
3440.38477,-0.0261031780
3439.09912,-0.0220431201
3437.81348,-0.0202846471
3436.52783,-0.0209756792
3435.24219,-0.0228936169
3433.95654,-0.0243197400
3432.67090,-0.0242181979
3431.38525,-0.0232465994
3430.09961,-0.0228453372
3428.81396,-0.0241631567
3427.52832,-0.0280351993
3426.24268,-0.0349668525
3424.95703,-0.0439080559
3423.67139,-0.0516066402
3422.38574,-0.0544678308
3421.10010,-0.0513439216
3419.81445,-0.0443690084
3418.52881,-0.0376369655
3417.24316,-0.0349984728
3415.95752,-0.0387020744
3414.67188,-0.0475279056
3413.38623,-0.0562059507
3412.10059,-0.0584992208
3410.81494,-0.0523599610
3409.52930,-0.0419302247
3408.24365,-0.0338606909
3406.95801,-0.0310735945
3405.67236,-0.0309975352
3404.38672,-0.0305953156
3403.10107,-0.0314163826
3401.81543,-0.0371958502
3400.52979,-0.0476775281
3399.24414,-0.0582286380
3397.95850,-0.0648550466
3396.67285,-0.0663679019
3395.38721,-0.0624765381
3394.10156,-0.0535642318
3392.81592,-0.0432803296
3391.53027,-0.0379611924
3390.24463,-0.0422521047
3388.95898,-0.0553191900
3387.67334,-0.0713937879
3386.38770,-0.0841281340
3385.10205,-0.0900139138
3383.81641,-0.0887453482
3382.53076,-0.0816910639
3381.24512,-0.0709541962
3379.95947,-0.0591530129
3378.67383,-0.0495189391
3377.38818,-0.0451260209
3376.10254,-0.0471995547
3374.81689,-0.0542339385
3373.53125,-0.0623751022
3372.24561,-0.0680222213
3370.95996,-0.0706334561
3369.67432,-0.0723383948
3368.38867,-0.0754765421
3367.10303,-0.0806419179
3365.81738,-0.0861085504
3364.53174,-0.0886962116
3363.24609,-0.0867110342
3361.96045,-0.0827402845
3360.67480,-0.0816839784
3359.38916,-0.0855434164
3358.10352,-0.0916658789
3356.81787,-0.0964184776
3355.53223,-0.0981969312
3354.24658,-0.0968725160
3352.96094,-0.0924844071
3351.67529,-0.0860472620
3350.38965,-0.0798525736
3349.10400,-0.0760999024
3347.81836,-0.0751774162
3346.53271,-0.0755539834
3345.24707,-0.0752487779
3343.96143,-0.0737548470
3342.67578,-0.0722483620
3341.39014,-0.0716606677
3340.10449,-0.0712277666
3338.81885,-0.0699312910
3337.53320,-0.0692034885
3336.24756,-0.0725359768
3334.96191,-0.0820257291
3333.67627,-0.0955026373
3332.39063,-0.1072478965
3331.10498,-0.1119434088
3329.81934,-0.1081842482
3328.53369,-0.0992527679
3327.24805,-0.0903102607
3325.96240,-0.0841552168
3324.67676,-0.0797440037
3323.39111,-0.0755736530
3322.10547,-0.0729665309
3320.81982,-0.0743458718
3319.53418,-0.0790969059
3318.24854,-0.0837498009
3316.96289,-0.0863026008
3315.67725,-0.0879993513
3314.39160,-0.0902445689
3313.10596,-0.0918762982
3311.82031,-0.0912341177
3310.53467,-0.0893194452
3309.24902,-0.0894486904
3307.96338,-0.0939917192
3306.67773,-0.1017618030
3305.39209,-0.1089841723
3304.10645,-0.1130964831
3302.82080,-0.1148728281
3301.53516,-0.1162394062
3300.24951,-0.1172146797
3298.96387,-0.1165945828
3297.67822,-0.1152811050
3296.39258,-0.1156070083
3295.10693,-0.1174576133
3293.82129,-0.1176297367
3292.53564,-0.1144931763
3291.25000,-0.1101877838
3289.96436,-0.1078259647
3288.67871,-0.1084686220
3287.39307,-0.1113009155
3286.10742,-0.1157661825
3284.82178,-0.1215784624
3283.53613,-0.1270904839
3282.25049,-0.1291264147
3280.96484,-0.1252420098
3279.67920,-0.1161234602
3278.39355,-0.1055529788
3277.10791,-0.0978753790
3275.82227,-0.0954387709
3274.53662,-0.0981920138
3273.25098,-0.1048932746
3271.96533,-0.1138988063
3270.67969,-0.1228760704
3269.39404,-0.1284603328
3268.10840,-0.1276056319
3266.82275,-0.1206328571
3265.53711,-0.1117972434
3264.25146,-0.1052953675
3262.96582,-0.1018995568
3261.68018,-0.1011893302
3260.39453,-0.1040330008
3259.10889,-0.1105434522
3257.82324,-0.1176680923
3256.53760,-0.1216402799
3255.25195,-0.1220428720
3253.96631,-0.1214752942
3252.68066,-0.1218575239
3251.39502,-0.1230757087
3250.10938,-0.1242571175
3248.82373,-0.1248584092
3247.53809,-0.1252550036
3246.25244,-0.1269467771
3244.96680,-0.1312036216
3243.68115,-0.1371692121
3242.39551,-0.1422519237
3241.10986,-0.1445796192
3239.82422,-0.1439107955
3238.53857,-0.1405763626
3237.25293,-0.1351663321
3235.96729,-0.1293846667
3234.68164,-0.1255396158
3233.39600,-0.1251909435
3232.11035,-0.1284764558
3230.82471,-0.1338695139
3229.53906,-0.1385108978
3228.25342,-0.1396908611
3226.96777,-0.1365257949
3225.68213,-0.1300219744
3224.39648,-0.1221055761
3223.11084,-0.1148290858
3221.82520,-0.1099577844
3220.53955,-0.1084294990
3219.25391,-0.1098720506
3217.96826,-0.1127115339
3216.68262,-0.1151666269
3215.39697,-0.1165202558
3214.11133,-0.1172236130
3212.82568,-0.1175399795
3211.54004,-0.1167878360
3210.25439,-0.1144090742
3208.96875,-0.1112597808
3207.68311,-0.1089487597
3206.39746,-0.1085700765
3205.11182,-0.1103871390
3203.82617,-0.1140379161
3202.54053,-0.1183272898
3201.25488,-0.1214644238
3199.96924,-0.1221610755
3198.68359,-0.1206949726
3197.39795,-0.1185709015
3196.11230,-0.1172032580
3194.82666,-0.1168942526
3193.54102,-0.1168895438
3192.25537,-0.1161793768
3190.96973,-0.1141020507
3189.68408,-0.1103596389
3188.39844,-0.1050886437
3187.11279,-0.0993646681
3185.82715,-0.0951627046
3184.54150,-0.0936646089
3183.25586,-0.0938130543
3181.97021,-0.0933902115
3180.68457,-0.0914577693
3179.39893,-0.0889892206
3178.11328,-0.0873752832
3176.82764,-0.0870801806
3175.54199,-0.0876341090
3174.25635,-0.0881464481
3172.97070,-0.0877683312
3171.68506,-0.0866159052
3170.39941,-0.0858853981
3169.11377,-0.0862020850
3167.82813,-0.0861836150
3166.54248,-0.0837385654
3165.25684,-0.0785288811
3163.97119,-0.0723237470
3162.68555,-0.0672907233
3161.39990,-0.0647248328
3160.11426,-0.0648213401
3158.82861,-0.0666156039
3157.54297,-0.0684215873
3156.25732,-0.0692135617
3154.97168,-0.0693767816
3153.68604,-0.0696591511
3152.40039,-0.0699193105
3151.11475,-0.0693062618
3149.82910,-0.0672309473
3148.54346,-0.0639694855
3147.25781,-0.0604990758
3145.97217,-0.0577515848
3144.68652,-0.0558168218
3143.40088,-0.0540631488
3142.11523,-0.0521062389
3140.82959,-0.0503223240
3139.54395,-0.0493149906
3138.25830,-0.0492448360
3136.97266,-0.0496899560
3135.68701,-0.0498456284
3134.40137,-0.0489551574
3133.11572,-0.0469727702
3131.83008,-0.0447659120
3130.54443,-0.0432447642
3129.25879,-0.0423744991
3127.97314,-0.0413532034
3126.68750,-0.0396321341
3125.40186,-0.0374444686
3124.11621,-0.0353462435
3122.83057,-0.0335167125
3121.54492,-0.0318013877
3120.25928,-0.0302923918
3118.97363,-0.0294676423
3117.68799,-0.0295170322
3116.40234,-0.0298132915
3115.11670,-0.0294149574
3113.83105,-0.0279857423
3112.54541,-0.0259058364
3111.25977,-0.0235839467
3109.97412,-0.0211364198
3108.68848,-0.0187466275
3107.40283,-0.0168724023
3106.11719,-0.0157801304
3104.83154,-0.0150436684
3103.54590,-0.0138648497
3102.26025,-0.0119844517
3100.97461,-0.0100603662
3099.68896,-0.0089258486
3098.40332,-0.0085740238
3097.11768,-0.0081401654
3095.83203,-0.0068726251
3094.54639,-0.0048932019
3093.26074,-0.0029644677
3091.97510,-0.0016721167
3090.68945,-0.0009539368
3089.40381,-0.0003366460
3088.11816,0.0004991870
3086.83252,0.0014461692
3085.54688,0.0022765442
3084.26123,0.0031071801
3082.97559,0.0043479889
3081.68994,0.0061502052
3080.40430,0.0081350300
3079.11865,0.0098207053
3077.83301,0.0111428564
3076.54736,0.0123583963
3075.26172,0.0135619631
3073.97607,0.0145425256
3072.69043,0.0151445940
3071.40479,0.0155470902
3070.11914,0.0160780754
3068.83350,0.0168776400
3067.54785,0.0178895425
3066.26221,0.0191030670
3064.97656,0.0205930471
3063.69092,0.0222584978
3062.40527,0.0237194989
3061.11963,0.0246540792
3059.83398,0.0251852963
3058.54834,0.0257660784
3057.26270,0.0266427062
3055.97705,0.0275976695
3054.69141,0.0283405446
3053.40576,0.0289838146
3052.12012,0.0298697390
3050.83447,0.0310227685
3049.54883,0.0320954137
3048.26318,0.0328701474
3046.97754,0.0335332304
3045.69189,0.0343698151
3044.40625,0.0354202725
3043.12061,0.0365470387
3041.83496,0.0376345366
3040.54932,0.0385937206
3039.26367,0.0393145941
3037.97803,0.0397717133
3036.69238,0.0401456580
3035.40674,0.0407477468
3034.12109,0.0417674184
3032.83545,0.0430889651
3031.54980,0.0443747193
3030.26416,0.0453520007
3028.97852,0.0460087582
3027.69287,0.0465446562
3026.40723,0.0472099185
3025.12158,0.0481551662
3023.83594,0.0492845662
3022.55029,0.0502691083
3021.26465,0.0508736484
3019.97900,0.0512731001
3018.69336,0.0518735275
3017.40771,0.0528250486
3016.12207,0.0538971871
3014.83643,0.0548340678
3013.55078,0.0556118228
3012.26514,0.0562938675
3010.97949,0.0568296090
3009.69385,0.0571464039
3008.40820,0.0573418550
3007.12256,0.0576618575
3005.83691,0.0582972392
3004.55127,0.0592439435
3003.26563,0.0603441335
3001.97998,0.0614267588
3000.69434,0.0623966269
2999.40869,0.0632166490
2998.12305,0.0638488606
2996.83740,0.0642535537
2995.55176,0.0644471869
2994.26611,0.0645301640
2992.98047,0.0646356121
2991.69482,0.0648567975
2990.40918,0.0652329251
2989.12354,0.0657762960
2987.83789,0.0664586574
2986.55225,0.0671891719
2985.26660,0.0678723529
2983.98096,0.0684966445
2982.69531,0.0691011176
2981.40967,0.0696564913
2980.12402,0.0700647086
2978.83838,0.0702994838
2977.55273,0.0704744309
2976.26709,0.0707404539
2974.98145,0.0711748302
2973.69580,0.0717719868
2972.41016,0.0724561438
2971.12451,0.0730684698
2969.83887,0.0734342113
2968.55322,0.0735149384
2967.26758,0.0734618679
2965.98193,0.0734791309
2964.69629,0.0736673400
2963.41064,0.0740059316
2962.12500,0.0744180307
2960.83936,0.0748077258
2959.55371,0.0750946477
2958.26807,0.0752922818
2956.98242,0.0755246282
2955.69678,0.0758997798
2954.41113,0.0763792247
2953.12549,0.0768308342
2951.83984,0.0771887228
2950.55420,0.0774836466
2949.26855,0.0777334198
2947.98291,0.0779058784
2946.69727,0.0780079365
2945.41162,0.0781141818
2944.12598,0.0782582909
2942.84033,0.0783680454
2941.55469,0.0783695802
2940.26904,0.0783079788
2938.98340,0.0783019140
2937.69775,0.0783894658
2936.41211,0.0784589797
2935.12646,0.0783334672
2933.84082,0.0779297575
2932.55518,0.0773453414
2931.26953,0.0767841861
2929.98389,0.0763964802
2928.69824,0.0762038305
2927.41260,0.0761586949
2926.12695,0.0762167573
2924.84131,0.0763574019
2923.55566,0.0765861124
2922.27002,0.0768992379
2920.98438,0.0772123784
2919.69873,0.0773951039
2918.41309,0.0774483830
2917.12744,0.0775608569
2915.84180,0.0778871998
2914.55615,0.0783508942
2913.27051,0.0787673518
2911.98486,0.0790707842
2910.69922,0.0793175846
2909.41357,0.0795480460
2908.12793,0.0797581747
2906.84229,0.0799573734
2905.55664,0.0801592320
2904.27100,0.0803244486
2902.98535,0.0803687796
2901.69971,0.0802497417
2900.41406,0.0800388828
2899.12842,0.0798890442
2897.84277,0.0799092725
2896.55713,0.0800796971
2895.27148,0.0803125575
2893.98584,0.0805631503
2892.70020,0.0808216333
2891.41455,0.0810243785
2890.12891,0.0810583830
2888.84326,0.0808745399
2887.55762,0.0805460438
2886.27197,0.0802100450
2884.98633,0.0799731538
2883.70068,0.0798736066
2882.41504,0.0798898563
2881.12939,0.0799646303
2879.84375,0.0800219253
2878.55811,0.0799878091
2877.27246,0.0798211917
2875.98682,0.0795494542
2874.70117,0.0792715028
2873.41553,0.0790939778
2872.12988,0.0790354684
2870.84424,0.0789946392
2869.55859,0.0788437203
2868.27295,0.0785606876
2866.98730,0.0782455578
2865.70166,0.0779970959
2864.41602,0.0778158829
2863.13037,0.0776572973
2861.84473,0.0775295123
2860.55908,0.0774735659
2859.27344,0.0774486884
2857.98779,0.0773128867
2856.70215,0.0769646019
2855.41650,0.0764776841
2854.13086,0.0760551542
2852.84521,0.0758657083
2851.55957,0.0759610459
2850.27393,0.0763036087
2848.98828,0.0767856315
2847.70264,0.0772439763
2846.41699,0.0775640160
2845.13135,0.0777817518
2843.84570,0.0780149475
2842.56006,0.0782953054
2841.27441,0.0785323679
2839.98877,0.0786225423
2838.70313,0.0785307586
2837.41748,0.0782836825
2836.13184,0.0779573172
2834.84619,0.0776667446
2833.56055,0.0775032640
2832.27490,0.0774702877
2830.98926,0.0775025561
2829.70361,0.0775361657
2828.41797,0.0775411129
2827.13232,0.0775086582
2825.84668,0.0774374306
2824.56104,0.0773350671
2823.27539,0.0772134885
2821.98975,0.0770740137
2820.70410,0.0768921897
2819.41846,0.0766283050
2818.13281,0.0762726963
2816.84717,0.0758753642
2815.56152,0.0755209625
2814.27588,0.0752713457
2812.99023,0.0751404613
2811.70459,0.0751057267
2810.41895,0.0751151070
2809.13330,0.0750919431
2807.84766,0.0749722496
2806.56201,0.0747575685
2805.27637,0.0745120645
2803.99072,0.0742912143
2802.70508,0.0740914941
2801.41943,0.0738800690
2800.13379,0.0736522526
2798.84814,0.0734298900
2797.56250,0.0732245296
2796.27686,0.0730423778
2794.99121,0.0729185417
2793.70557,0.0728975385
2792.41992,0.0729544163
2791.13428,0.0729662180
2789.84863,0.0728060603
2788.56299,0.0724707246
2787.27734,0.0720910355
2785.99170,0.0717976019
2784.70605,0.0716007054
2783.42041,0.0714181662
2782.13477,0.0711960867
2780.84912,0.0709567219
2779.56348,0.0707415193
2778.27783,0.0705628768
2776.99219,0.0704211816
2775.70654,0.0703227594
2774.42090,0.0702562332
2773.13525,0.0701890215
2771.84961,0.0701152086
2770.56396,0.0700725913
2769.27832,0.0700833648
2767.99268,0.0700999647
2766.70703,0.0700569227
2765.42139,0.0699556172
2764.13574,0.0698569790
2762.85010,0.0698032901
2761.56445,0.0697954223
2760.27881,0.0698359981
2758.99316,0.0699343681
2757.70752,0.0700554103
2756.42188,0.0701130852
2755.13623,0.0700407401
2753.85059,0.0698628202
2752.56494,0.0696886107
2751.27930,0.0696284920
2749.99365,0.0696970299
2748.70801,0.0697978213
2747.42236,0.0698187947
2746.13672,0.0697434992
2744.85107,0.0696483105
2743.56543,0.0696224496
2742.27979,0.0697128400
2740.99414,0.0699172169
2739.70850,0.0701764524
2738.42285,0.0703835189
2737.13721,0.0704508275
2735.85156,0.0703890845
2734.56592,0.0703028589
2733.28027,0.0703025907
2731.99463,0.0704116449
2730.70898,0.0705540106
2729.42334,0.0706318989
2728.13770,0.0706120655
2726.85205,0.0705184862
2725.56641,0.0703621507
2724.28076,0.0701363832
2722.99512,0.0698924884
2721.70947,0.0697525293
2720.42383,0.0697949305
2719.13818,0.0699575990
2717.85254,0.0700943097
2716.56689,0.0701150596
2715.28125,0.0700463131
2713.99561,0.0699750185
2712.70996,0.0699671432
2711.42432,0.0700286999
2710.13867,0.0701100081
2708.85303,0.0701451451
2707.56738,0.0701017678
2706.28174,0.0699982643
2704.99609,0.0698761344
2703.71045,0.0697817951
2702.42480,0.0697738007
2701.13916,0.0698886588
2699.85352,0.0700729787
2698.56787,0.0702038109
2697.28223,0.0702160075
2695.99658,0.0701656193
2694.71094,0.0701324642
2693.42529,0.0701229349
2692.13965,0.0701096728
2690.85400,0.0701048374
2689.56836,0.0701356232
2688.28271,0.0701953545
2686.99707,0.0702706948
2685.71143,0.0703788921
2684.42578,0.0705403388
2683.14014,0.0707489252
2681.85449,0.0709957480
2680.56885,0.0712859109
2679.28320,0.0716118142
2677.99756,0.0719382018
2676.71191,0.0722258613
2675.42627,0.0724451616
2674.14063,0.0725732446
2672.85498,0.0726121590
2671.56934,0.0726108104
2670.28369,0.0726304501
2668.99805,0.0726925954
2667.71240,0.0727871135
2666.42676,0.0729218796
2665.14111,0.0731238574
2663.85547,0.0733916089
2662.56982,0.0736831427
2661.28418,0.0739543438
2659.99854,0.0741809085
2658.71289,0.0743520409
2657.42725,0.0744811147
2656.14160,0.0746208280
2654.85596,0.0748266429
2653.57031,0.0751011670
2652.28467,0.0753954500
2650.99902,0.0756630078
2649.71338,0.0758775547
2648.42773,0.0760199726
2647.14209,0.0760918483
2645.85645,0.0761373788
2644.57080,0.0762129650
2643.28516,0.0763320401
2641.99951,0.0764705539
2640.71387,0.0766196549
2639.42822,0.0768048167
2638.14258,0.0770515800
2636.85693,0.0773459822
2635.57129,0.0776264668
2634.28564,0.0778092518
2633.00000,0.0778413042
2631.71436,0.0777531415
2630.42871,0.0776593164
2629.14307,0.0776912272
2627.85742,0.0779086351
2626.57178,0.0782579258
2625.28613,0.0786101297
2624.00049,0.0788418055
2622.71484,0.0788974911
2621.42920,0.0788043141
2620.14355,0.0786468908
2618.85791,0.0785217881
2617.57227,0.0784858465
2616.28662,0.0785353035
2615.00098,0.0786362216
2613.71533,0.0787617937
2612.42969,0.0788880512
2611.14404,0.0789735839
2609.85840,0.0789827779
2608.57275,0.0789319202
2607.28711,0.0788872764
2606.00146,0.0789111480
2604.71582,0.0790103748
2603.43018,0.0791224167
2602.14453,0.0791505277
2600.85889,0.0790450945
2599.57324,0.0788596496
2598.28760,0.0786977187
2597.00195,0.0785983130
2595.71631,0.0785077140
2594.43066,0.0783717558
2593.14502,0.0782023147
2591.85938,0.0780423358
2590.57373,0.0779120326
2589.28809,0.0778181106
2588.00244,0.0777711645
2586.71680,0.0777644143
2585.43115,0.0777620897
2584.14551,0.0777325630
2582.85986,0.0776787922
2581.57422,0.0776215494
2580.28857,0.0775722787
2579.00293,0.0775289908
2577.71729,0.0774811804
2576.43164,0.0774124861
2575.14600,0.0773084983
2573.86035,0.0771702603
2572.57471,0.0770206973
2571.28906,0.0769004747
2570.00342,0.0768524930
2568.71777,0.0768877491
2567.43213,0.0769604966
2566.14648,0.0769929737
2564.86084,0.0769412443
2563.57520,0.0768269449
2562.28955,0.0767050162
2561.00391,0.0766177401
2559.71826,0.0765800625
2558.43262,0.0765820742
2557.14697,0.0765910298
2555.86133,0.0765645653
2554.57568,0.0764726177
2553.29004,0.0763012394
2552.00439,0.0760500059
2550.71875,0.0757469833
2549.43311,0.0754580349
2548.14746,0.0752415136
2546.86182,0.0750934780
2545.57617,0.0749641582
2544.29053,0.0748291612
2543.00488,0.0747124702
2541.71924,0.0746397898
2540.43359,0.0745908245
2539.14795,0.0745021254
2537.86230,0.0743098259
2536.57666,0.0740048364
2535.29102,0.0736597702
2534.00537,0.0733791664
2532.71973,0.0731989369
2531.43408,0.0730519295
2530.14844,0.0728472993
2528.86279,0.0725588277
2527.57715,0.0722127184
2526.29150,0.0718200356
2525.00586,0.0713737458
2523.72021,0.0709063485
2522.43457,0.0704965591
2521.14893,0.0701846927
2519.86328,0.0699102134
2518.57764,0.0695802122
2517.29199,0.0691925064
2516.00635,0.0688428134
2514.72070,0.0686055869
2513.43506,0.0684461296
2512.14941,0.0682704523
2510.86377,0.0680246949
2509.57813,0.0677237809
2508.29248,0.0674091578
2507.00684,0.0671084449
2505.72119,0.0668278411
2504.43555,0.0665626526
2503.14990,0.0663051978
2501.86426,0.0660387948
2500.57861,0.0657348484
2499.29297,0.0653683096
2498.00732,0.0649493113
2496.72168,0.0645301268
2495.43604,0.0641727075
2494.15039,0.0638999268
2492.86475,0.0636761487
2491.57910,0.0634377748
2490.29346,0.0631477684
2489.00781,0.0628189966
2487.72217,0.0624834821
2486.43652,0.0621557832
2485.15088,0.0618339814
2483.86523,0.0615222491
2482.57959,0.0612234734
2481.29395,0.0609087273
2480.00830,0.0605246313
2478.72266,0.0600581132
2477.43701,0.0595798381
2476.15137,0.0591938011
2474.86572,0.0589428693
2473.58008,0.0587864071
2472.29443,0.0586574748
2471.00879,0.0585020967
2469.72314,0.0582744479
2468.43750,0.0579451472
2467.15186,0.0575316884
2465.86621,0.0570895113
2464.58057,0.0566726439
2463.29492,0.0563196503
2462.00928,0.0560555607
2460.72363,0.0558645427
2459.43799,0.0556747317
2458.15234,0.0554148555
2456.86670,0.0550835170
2455.58105,0.0547415316
2454.29541,0.0544397272
2453.00977,0.0541795269
2451.72412,0.0539351366
2450.43848,0.0536923856
2449.15283,0.0534541234
2447.86719,0.0532124899
2446.58154,0.0529433787
2445.29590,0.0526444502
2444.01025,0.0523564480
2442.72461,0.0521209612
2441.43896,0.0519285500
2440.15332,0.0517405644
2438.86768,0.0515495725
2437.58203,0.0513808057
2436.29639,0.0512359329
2435.01074,0.0510657467
2433.72510,0.0508124530
2432.43945,0.0504714027
2431.15381,0.0501018837
2429.86816,0.0497787222
2428.58252,0.0495381616
2427.29688,0.0493653044
2426.01123,0.0492175929
2424.72559,0.0490497015
2423.43994,0.0488371737
2422.15430,0.0485957451
2420.86865,0.0483670942
2419.58301,0.0481716245
2418.29736,0.0479873382
2417.01172,0.0477844067
2415.72607,0.0475603119
2414.44043,0.0473260581
2413.15479,0.0470771566
2411.86914,0.0468023084
2410.58350,0.0465139747
2409.29785,0.0462474823
2408.01221,0.0460230559
2406.72656,0.0458225124
2405.44092,0.0456183143
2404.15527,0.0454159714
2402.86963,0.0452450328
2401.58398,0.0451050065
2400.29834,0.0449440330
2399.01270,0.0447057933
2397.72705,0.0443853326
2396.44141,0.0440358222
2395.15576,0.0437288173
2393.87012,0.0435102992
2392.58447,0.0433809571
2391.29883,0.0433108471
2390.01318,0.0432777330
2388.72754,0.0432953723
2387.44189,0.0434165969
2386.15625,0.0437156521
2384.87061,0.0442694277
2383.58496,0.0451431461
2382.29932,0.0463786051
2381.01367,0.0479762964
2379.72803,0.0498836488
2378.44238,0.0520196669
2377.15674,0.0543297641
2375.87109,0.0567985401
2374.58545,0.0593891367
2373.29980,0.0620204136
2372.01416,0.0646738857
2370.72852,0.0674757957
2369.44287,0.0705577061
2368.15723,0.0738310367
2366.87158,0.0769996792
2365.58594,0.0797987059
2364.30029,0.0821401104
2363.01465,0.0840414613
2361.72900,0.0854879767
2360.44336,0.0863544121
2359.15771,0.0864008367
2357.87207,0.0853462964
2356.58643,0.0830694214
2355.30078,0.0798101798
2354.01514,0.0760302916
2352.72949,0.0721006915
2351.44385,0.0683341399
2350.15820,0.0651734546
2348.87256,0.0631050691
2347.58691,0.0625046417
2346.30127,0.0635523424
2345.01563,0.0659915730
2343.72998,0.0688116923
2342.44434,0.0706591830
2341.15869,0.0709484890
2339.87305,0.0701124445
2338.58740,0.0689391568
2337.30176,0.0680000558
2336.01611,0.0674151406
2334.73047,0.0669787377
2333.44482,0.0664798692
2332.15918,0.0658749118
2330.87354,0.0652182773
2329.58789,0.0645281151
2328.30225,0.0637359470
2327.01660,0.0627554357
2325.73096,0.0616001599
2324.44531,0.0604067519
2323.15967,0.0592981800
2321.87402,0.0582235642
2320.58838,0.0569849573
2319.30273,0.0554543510
2318.01709,0.0537329018
2316.73145,0.0520789959
2315.44580,0.0507064871
2314.16016,0.0496481061
2312.87451,0.0487805195
2311.58887,0.0479543805
2310.30322,0.0470887311
2309.01758,0.0461458825
2307.73193,0.0450842679
2306.44629,0.0438971557
2305.16064,0.0426734388
2303.87500,0.0415556617
2302.58936,0.0406327248
2301.30371,0.0398867317
2300.01807,0.0392352231
2298.73242,0.0385972299
2297.44678,0.0379316360
2296.16113,0.0372463018
2294.87549,0.0365846306
2293.58984,0.0359937362
2292.30420,0.0354929902
2291.01855,0.0350627750
2289.73291,0.0346528627
2288.44727,0.0342031159
2287.16162,0.0336814597
2285.87598,0.0331195593
2284.59033,0.0326072946
2283.30469,0.0322385281
2282.01904,0.0320507102
2280.73340,0.0320115052
2279.44775,0.0320527181
2278.16211,0.0321177915
2276.87646,0.0321851149
2275.59082,0.0322556496
2274.30518,0.0323152654
2273.01953,0.0323152654
2271.73389,0.0322097018
2270.44824,0.0320242941
2269.16260,0.0318662301
2267.87695,0.0318291560
2266.59131,0.0318852030
2265.30566,0.0319019444
2264.02002,0.0317727253
2262.73438,0.0315151028
2261.44873,0.0312329810
2260.16309,0.0310030840
2258.87744,0.0308188275
2257.59180,0.0306312870
2256.30615,0.0304172877
2255.02051,0.0301989205
2253.73486,0.0300132316
2252.44922,0.0298832413
2251.16357,0.0298119839
2249.87793,0.0297845900
2248.59229,0.0297707822
2247.30664,0.0297455862
2246.02100,0.0297155902
2244.73535,0.0297021214
2243.44971,0.0296822172
2242.16406,0.0295792632
2240.87842,0.0293491594
2239.59277,0.0290604979
2238.30713,0.0288492069
2237.02148,0.0287847836
2235.73584,0.0288070217
2234.45020,0.0288016833
2233.16455,0.0287163015
2231.87891,0.0285908747
2230.59326,0.0284896418
2229.30762,0.0284249131
2228.02197,0.0283542778
2226.73633,0.0282454491
2225.45068,0.0281257909
2224.16504,0.0280571356
2222.87939,0.0280656125
2221.59375,0.0281062890
2220.30811,0.0281040315
2219.02246,0.0280219298
2217.73682,0.0278934743
2216.45117,0.0277832430
2215.16553,0.0277209897
2213.87988,0.0276824161
2212.59424,0.0276408959
2211.30859,0.0276146885
2210.02295,0.0276388023
2208.73730,0.0276997723
2207.45166,0.0277357213
2206.16602,0.0277067516
2204.88037,0.0276328698
2203.59473,0.0275509153
2202.30908,0.0274680182
2201.02344,0.0273794755
2199.73779,0.0273047406
2198.45215,0.0272770673
2197.16650,0.0273011848
2195.88086,0.0273382626
2194.59521,0.0273324996
2193.30957,0.0272544380
2192.02393,0.0271248855
2190.73828,0.0269959234
2189.45264,0.0269056633
2188.16699,0.0268545523
2186.88135,0.0268242899
2185.59570,0.0268095322
2184.31006,0.0268263817
2183.02441,0.0268974286
2181.73877,0.0270213485
2180.45313,0.0271470658
2179.16748,0.0271951556
2177.88184,0.0271241684
2176.59619,0.0269767232
2175.31055,0.0268482435
2174.02490,0.0268119257
2172.73926,0.0268761404
2171.45361,0.0269963630
2170.16797,0.0271165930
2168.88232,0.0272052400
2167.59668,0.0272627342
2166.31104,0.0273049921
2165.02539,0.0273454301
2163.73975,0.0273845792
2162.45410,0.0274037700
2161.16846,0.0273830350
2159.88281,0.0273478851
2158.59717,0.0273769721
2157.31152,0.0275249612
2156.02588,0.0277483892
2154.74023,0.0279426407
2153.45459,0.0280466415
2152.16895,0.0280742589
2150.88330,0.0280578565
2149.59766,0.0280130133
2148.31201,0.0279652756
2147.02637,0.0279651657
2145.74072,0.0280449614
2144.45508,0.0281778798
2143.16943,0.0283039100
2141.88379,0.0283950381
2140.59814,0.0284769535
2139.31250,0.0285869762
2138.02686,0.0287278891
2136.74121,0.0288718920
2135.45557,0.0290002227
2134.16992,0.0291181561
2132.88428,0.0292338785
2131.59863,0.0293373913
2130.31299,0.0294136126
2129.02734,0.0294682123
2127.74170,0.0295310505
2126.45605,0.0296269283
2125.17041,0.0297452267
2123.88477,0.0298484415
2122.59912,0.0299193747
2121.31348,0.0299912076
2120.02783,0.0301093515
2118.74219,0.0302683301
2117.45654,0.0304202288
2116.17090,0.0305494908
2114.88525,0.0306973774
2113.59961,0.0308916159
2112.31396,0.0310909767
2111.02832,0.0312415194
2109.74268,0.0313502140
2108.45703,0.0314610489
2107.17139,0.0315870866
2105.88574,0.0317158625
2104.60010,0.0318553671
2103.31445,0.0320217833
2102.02881,0.0321936719
2100.74316,0.0323280655
2099.45752,0.0324234739
2098.17188,0.0325233154
2096.88623,0.0326543748
2095.60059,0.0327973366
2094.31494,0.0329297669
2093.02930,0.0330687165
2091.74365,0.0332488455
2090.45801,0.0334737822
2089.17236,0.0337084569
2087.88672,0.0339176469
2086.60107,0.0340892263
2085.31543,0.0342270322
2084.02979,0.0343484133
2082.74414,0.0344917700
2081.45850,0.0346933492
2080.17285,0.0349422954
2078.88721,0.0351772569
2077.60156,0.0353437699
2076.31592,0.0354425423
2075.03027,0.0355193689
2073.74463,0.0356172509
2072.45898,0.0357462987
2071.17334,0.0358844660
2069.88770,0.0360096842
2068.60205,0.0361360610
2067.31641,0.0363118090
2066.03076,0.0365667194
2064.74512,0.0368624143
2063.45947,0.0371150598
2062.17383,0.0372764766
2060.88818,0.0373823531
2059.60254,0.0375123732
2058.31689,0.0377120338
2057.03125,0.0379515514
2055.74561,0.0381607637
2054.45996,0.0382993333
2053.17432,0.0383965708
2051.88867,0.0385141410
2050.60303,0.0386802182
2049.31738,0.0388694219
2048.03174,0.0390510410
2046.74609,0.0392318852
2045.46045,0.0394379422
2044.17480,0.0396662205
2042.88916,0.0398770273
2041.60352,0.0400404446
2040.31787,0.0401764885
2039.03223,0.0403369516
2037.74658,0.0405449569
2036.46094,0.0407652631
2035.17529,0.0409385711
2033.88965,0.0410426632
2032.60400,0.0411165878
2031.31836,0.0412235670
2030.03271,0.0413889997
2028.74707,0.0415750593
2027.46143,0.0417178869
2026.17578,0.0417936966
2024.89014,0.0418439396
2023.60449,0.0419329964
2022.31885,0.0420913734
2021.03320,0.0423074663
2019.74756,0.0425516777
2018.46191,0.0427853465
2017.17627,0.0429601483
2015.89063,0.0430428609
2014.60498,0.0430498570
2013.31934,0.0430351086
2012.03369,0.0430520922
2010.74805,0.0431266427
2009.46240,0.0432437845
2008.17676,0.0433536060
2006.89111,0.0434077568
2005.60547,0.0434064977
2004.31982,0.0433929972
2003.03418,0.0434056409
2001.74854,0.0434507318
2000.46289,0.0435197391
1999.17725,0.0436029620
1997.89160,0.0436877683
1996.60596,0.0437714197
1995.32031,0.0438849851
1994.03467,0.0440712906
1992.74902,0.0443165787
1991.46338,0.0445232019
1990.17773,0.0445924141
1988.89209,0.0445268154
1987.60645,0.0444053710
1986.32080,0.0442902669
1985.03516,0.0441987179
1983.74951,0.0441377088
1982.46387,0.0441170186
1981.17822,0.0441281684
1979.89258,0.0441430360
1978.60693,0.0441406853
1977.32129,0.0441223457
1976.03564,0.0440975912
1974.75000,0.0440744422
1973.46436,0.0440559015
1972.17871,0.0440316945
1970.89307,0.0439892970
1969.60742,0.0439422391
1968.32178,0.0439270288
1967.03613,0.0439545773
1965.75049,0.0439878702
1964.46484,0.0439927354
1963.17920,0.0439788997
1961.89355,0.0439639501
1960.60791,0.0439361632
1959.32227,0.0438787378
1958.03662,0.0438015126
1956.75098,0.0437196866
1955.46533,0.0436187871
1954.17969,0.0434706695
1952.89404,0.0432793871
1951.60840,0.0430877060
1950.32275,0.0429372862
1949.03711,0.0428387970
1947.75146,0.0427915379
1946.46582,0.0428180806
1945.18018,0.0429463126
1943.89453,0.0431368202
1942.60889,0.0432497337
1941.32324,0.0431538597
1940.03760,0.0428758524
1938.75195,0.0425589606
1937.46631,0.0423053876
1936.18066,0.0421343558
1934.89502,0.0420345068
1933.60938,0.0419876575
1932.32373,0.0419547819
1931.03809,0.0418855585
1929.75244,0.0417580120
1928.46680,0.0415963158
1927.18115,0.0414595939
1925.89551,0.0414142869
1924.60986,0.0414805226
1923.32422,0.0415832661
1922.03857,0.0415983945
1920.75293,0.0414841697
1919.46729,0.0412972942
1918.18164,0.0410719700
1916.89600,0.0407879800
1915.61035,0.0404672101
1914.32471,0.0401933566
1913.03906,0.0400165170
1911.75342,0.0399169251
1910.46777,0.0398426130
1909.18213,0.0397419557
1907.89648,0.0395859964
1906.61084,0.0393991098
1905.32520,0.0392393656
1904.03955,0.0391215645
1902.75391,0.0389890485
1901.46826,0.0387813076
1900.18262,0.0385113470
1898.89697,0.0382557400
1897.61133,0.0380832143
1896.32568,0.0379995219
1895.04004,0.0379505083
1893.75439,0.0378849432
1892.46875,0.0378118791
1891.18311,0.0377612449
1889.89746,0.0377010182
1888.61182,0.0375497155
1887.32617,0.0372897685
1886.04053,0.0370019525
1884.75488,0.0367644206
1883.46924,0.0365934484
1882.18359,0.0364648812
1880.89795,0.0363456383
1879.61230,0.0362051874
1878.32666,0.0360280760
1877.04102,0.0358301476
1875.75537,0.0356531627
1874.46973,0.0355353802
1873.18408,0.0354975984
1871.89844,0.0355629697
1870.61279,0.0357568376
1869.32715,0.0360255726
1868.04150,0.0361576676
1866.75586,0.0359569788
1865.47021,0.0355027393
1864.18457,0.0350154079
1862.89893,0.0346213244
1861.61328,0.0343318842
1860.32764,0.0341015756
1859.04199,0.0338687859
1857.75635,0.0336071178
1856.47070,0.0333645791
1855.18506,0.0332164280
1853.89941,0.0331710540
1852.61377,0.0331650451
1851.32813,0.0331542268
1850.04248,0.0331588686
1848.75684,0.0332093313
1847.47119,0.0333032273
1846.18555,0.0334317014
1844.89990,0.0335743055
1843.61426,0.0336278677
1842.32861,0.0334655344
1841.04297,0.0331396759
1839.75732,0.0328363404
1838.47168,0.0326773711
1837.18604,0.0326384678
1835.90039,0.0326103084
1834.61475,0.0325506851
1833.32910,0.0325349495
1832.04346,0.0326423422
1830.75781,0.0328383222
1829.47217,0.0329588950
1828.18652,0.0328676924
1826.90088,0.0326237604
1825.61523,0.0323606953
1824.32959,0.0321127512
1823.04395,0.0318423845
1821.75830,0.0315654278
1820.47266,0.0313619301
1819.18701,0.0312765688
1817.90137,0.0312738717
1816.61572,0.0312901475
1815.33008,0.0313024446
1814.04443,0.0313383043
1812.75879,0.0314368382
1811.47314,0.0315940492
1810.18750,0.0317184217
1808.90186,0.0316972025
1807.61621,0.0315354504
1806.33057,0.0313530229
1805.04492,0.0312651396
1803.75928,0.0313308761
1802.47363,0.0315599740
1801.18799,0.0318897739
1799.90234,0.0321844183
1798.61670,0.0323455222
1797.33105,0.0324010216
1796.04541,0.0324531533
1794.75977,0.0326250456
1793.47412,0.0330253914
1792.18848,0.0335996486
1790.90283,0.0340391360
1789.61719,0.0341573842
1788.33154,0.0341508314
1787.04590,0.0342880152
1785.76025,0.0346926488
1784.47461,0.0353451744
1783.18896,0.0361455716
1781.90332,0.0370143019
1780.61768,0.0379254483
1779.33203,0.0388497189
1778.04639,0.0397614129
1776.76074,0.0407238938
1775.47510,0.0419004448
1774.18945,0.0435022861
1772.90381,0.0456995778
1771.61816,0.0483531803
1770.33252,0.0509487689
1769.04688,0.0532549471
1767.76123,0.0555228591
1766.47559,0.0579416566
1765.18994,0.0605124310
1763.90430,0.0634374171
1762.61865,0.0672026873
1761.33301,0.0719263554
1760.04736,0.0769314393
1758.76172,0.0817821920
1757.47607,0.0869183615
1756.19043,0.0926100239
1754.90479,0.0983743519
1753.61914,0.1039471254
1752.33350,0.1099927202
1751.04785,0.1175260544
1749.76221,0.1267811209
1748.47656,0.1365292370
1747.19092,0.1453788877
1745.90527,0.1532746553
1744.61963,0.1608510166
1743.33398,0.1684377939
1742.04834,0.1760976911
1740.76270,0.1840480566
1739.47705,0.1922083944
1738.19141,0.1996165514
1736.90576,0.2056698650
1735.62012,0.2114571929
1734.33447,0.2189402133
1733.04883,0.2280292213
1731.76318,0.2355702966
1730.47754,0.2404367477
1729.19189,0.2440232188
1727.90625,0.2471564561
1726.62061,0.2499118894
1725.33496,0.2523276508
1724.04932,0.2544413805
1722.76367,0.2561229169
1721.47803,0.2572411895
1720.19238,0.2578714788
1718.90674,0.2582088113
1717.62109,0.2581602633
1716.33545,0.2568587363
1715.04980,0.2537220120
1713.76416,0.2496600747
1712.47852,0.2455303520
1711.19287,0.2413961142
1709.90723,0.2371670902
1708.62158,0.2328650504
1707.33594,0.2282555550
1706.05029,0.2228207588
1704.76465,0.2166877985
1703.47900,0.2107989639
1702.19336,0.2053578943
1700.90771,0.1993754804
1699.62207,0.1922426522
1698.33643,0.1850171983
1697.05078,0.1782295704
1695.76514,0.1708127558
1694.47949,0.1629460901
1693.19385,0.1561316252
1691.90820,0.1506504118
1690.62256,0.1456236690
1689.33691,0.1404750049
1688.05127,0.1355207115
1686.76563,0.1312400699
1685.47998,0.1272218376
1684.19434,0.1222398356
1682.90869,0.1161673889
1681.62305,0.1107926071
1680.33740,0.1067249551
1679.05176,0.1034559160
1677.76611,0.1006783843
1676.48047,0.0981730446
1675.19482,0.0955925286
1673.90918,0.0928468853
1672.62354,0.0903176963
1671.33789,0.0881627426
1670.05225,0.0859976262
1668.76660,0.0835779682
1667.48096,0.0813652650
1666.19531,0.0797777697
1664.90967,0.0787579790
1663.62402,0.0782473162
1662.33838,0.0781919360
1661.05273,0.0781872198
1659.76709,0.0778153539
1658.48145,0.0772260800
1657.19580,0.0768457577
1655.91016,0.0769494176
1654.62451,0.0775587857
1653.33887,0.0782156438
1652.05322,0.0779658407
1650.76758,0.0771100968
1649.48193,0.0766214728
1648.19629,0.0767273158
1646.91064,0.0773224086
1645.62500,0.0779449940
1644.33936,0.0780970529
1643.05371,0.0779194087
1641.76807,0.0778188780
1640.48242,0.0780581534
1639.19678,0.0787080452
1637.91113,0.0797059238
1636.62549,0.0808045715
1635.33984,0.0813284814
1634.05420,0.0808376521
1632.76855,0.0800287351
1631.48291,0.0795809776
1630.19727,0.0796210840
1628.91162,0.0800413415
1627.62598,0.0805769563
1626.34033,0.0808622912
1625.05469,0.0806491077
1623.76904,0.0798715353
1622.48340,0.0786301419
1621.19775,0.0772725195
1619.91211,0.0761805102
1618.62646,0.0754117146
1617.34082,0.0745565891
1616.05518,0.0729814619
1614.76953,0.0707296431
1613.48389,0.0684023052
1612.19824,0.0661846250
1610.91260,0.0639771521
1609.62695,0.0618034750
1608.34131,0.0598133430
1607.05566,0.0580611788
1605.77002,0.0564390235
1604.48438,0.0548092797
1603.19873,0.0531048812
1601.91309,0.0513518453
1600.62744,0.0496424176
1599.34180,0.0480643064
1598.05615,0.0466543138
1596.77051,0.0453999043
1595.48486,0.0442249663
1594.19922,0.0429927818
1592.91357,0.0416110419
1591.62793,0.0401458554
1590.34229,0.0387708023
1589.05664,0.0376139283
1587.77100,0.0366771221
1586.48535,0.0358825251
1585.19971,0.0351395607
1583.91406,0.0343711078
1582.62842,0.0335550979
1581.34277,0.0327830166
1580.05713,0.0322157815
1578.77148,0.0319311172
1577.48584,0.0317753740
1576.20020,0.0313164629
1574.91455,0.0303041637
1573.62891,0.0291682053
1572.34326,0.0283277836
1571.05762,0.0277869366
1569.77197,0.0273589939
1568.48633,0.0268564243
1567.20068,0.0262518786
1565.91504,0.0256215930
1564.62939,0.0250197519
1563.34375,0.0245214105
1562.05811,0.0242687613
1560.77246,0.0244719479
1559.48682,0.0253169052
1558.20117,0.0262057111
1556.91553,0.0259197652
1555.62988,0.0248601325
1554.34424,0.0237268265
1553.05859,0.0227394067
1551.77295,0.0219726600
1550.48730,0.0213961620
1549.20166,0.0209324099
1547.91602,0.0206146538
1546.63037,0.0205904134
1545.34473,0.0209670495
1544.05908,0.0216954723
1542.77344,0.0225692559
1541.48779,0.0232579876
1540.20215,0.0231476147
1538.91650,0.0219615512
1537.63086,0.0206395164
1536.34521,0.0198208373
1535.05957,0.0194373447
1533.77393,0.0192117952
1532.48828,0.0188777726
1531.20264,0.0184592139
1529.91699,0.0182037484
1528.63135,0.0182164330
1527.34570,0.0183821600
1526.06006,0.0184920877
1524.77441,0.0184988659
1523.48877,0.0185903944
1522.20313,0.0188676342
1520.91748,0.0190876760
1519.63184,0.0189826041
1518.34619,0.0186421648
1517.06055,0.0181864426
1515.77490,0.0175817646
1514.48926,0.0169000309
1513.20361,0.0163892508
1511.91797,0.0162650216
1510.63232,0.0166200344
1509.34668,0.0174742267
1508.06104,0.0187176391
1506.77539,0.0195734780
1505.48975,0.0189994257
1504.20410,0.0177409127
1502.91846,0.0167476758
1501.63281,0.0161702484
1500.34717,0.0159845762
1499.06152,0.0161823127
1497.77588,0.0166534428
1496.49023,0.0170780979
1495.20459,0.0171974413
1493.91895,0.0171478111
1492.63330,0.0172319151
1491.34766,0.0176292900
1490.06201,0.0182632189
1488.77637,0.0187288299
1487.49072,0.0187067222
1486.20508,0.0184109770
1484.91943,0.0181821529
1483.63379,0.0181596670
1482.34814,0.0183392260
1481.06250,0.0186490547
1479.77686,0.0190338790
1478.49121,0.0195376258
1477.20557,0.0202647932
1475.91992,0.0212725047
1474.63428,0.0225284938
1473.34863,0.0238464270
1472.06299,0.0247574374
1470.77734,0.0249431413
1469.49170,0.0247817449
1468.20605,0.0248593651
1466.92041,0.0255457852
1465.63477,0.0269350484
1464.34912,0.0286835302
1463.06348,0.0302022249
1461.77783,0.0313683860
1460.49219,0.0325885750
1459.20654,0.0344452783
1457.92090,0.0374538787
1456.63525,0.0410791934
1455.34961,0.0436122343
1454.06396,0.0449921228
1452.77832,0.0462698564
1451.49268,0.0479658283
1450.20703,0.0501523502
1448.92139,0.0527321547
1447.63574,0.0554930605
1446.35010,0.0581051484
1445.06445,0.0603374168
1443.77881,0.0622528121
1442.49316,0.0640349537
1441.20752,0.0657465607
1439.92188,0.0673662275
1438.63623,0.0689914376
1437.35059,0.0708036423
1436.06494,0.0726647526
1434.77930,0.0740931407
1433.49365,0.0750468895
1432.20801,0.0759333819
1430.92236,0.0769892335
1429.63672,0.0780901089
1428.35107,0.0789999738
1427.06543,0.0797406361
1425.77979,0.0805463865
1424.49414,0.0815474689
1423.20850,0.0826352611
1421.92285,0.0836717710
1420.63721,0.0847958103
1419.35156,0.0863179639
1418.06592,0.0881509781
1416.78027,0.0896962062
1415.49463,0.0907500312
1414.20898,0.0916575715
1412.92334,0.0927495435
1411.63770,0.0941430926
1410.35205,0.0957673490
1409.06641,0.0974489003
1407.78076,0.0990710258
1406.49512,0.1006478369
1405.20947,0.1021580994
1403.92383,0.1033985093
1402.63818,0.1042175293
1401.35254,0.1047413573
1400.06689,0.1051599532
1398.78125,0.1054639444
1397.49561,0.1054830551
1396.20996,0.1051054671
1394.92432,0.1043626741
1393.63867,0.1033890098
1392.35303,0.1023720726
1391.06738,0.1014474258
1389.78174,0.1006470472
1388.49609,0.0999184847
1387.21045,0.0991493762
1385.92480,0.0982699543
1384.63916,0.0973563790
1383.35352,0.0965323970
1382.06787,0.0958509073
1380.78223,0.0953186080
1379.49658,0.0949452817
1378.21094,0.0947422683
1376.92529,0.0947109759
1375.63965,0.0948330685
1374.35400,0.0950220376
1373.06836,0.0951486453
1371.78271,0.0952275768
1370.49707,0.0954565182
1369.21143,0.0959862694
1367.92578,0.0967645571
1366.64014,0.0976547003
1365.35449,0.0986657441
1364.06885,0.0999299884
1362.78320,0.1014219970
1361.49756,0.1028373167
1360.21191,0.1039583459
1358.92627,0.1049502864
1357.64063,0.1060933098
1356.35498,0.1074884534
1355.06934,0.1090413928
1353.78369,0.1106008813
1352.49805,0.1120871753
1351.21240,0.1134953350
1349.92676,0.1148308069
1348.64111,0.1161009893
1347.35547,0.1173377559
1346.06982,0.1185716093
1344.78418,0.1197982356
1343.49854,0.1210156977
1342.21289,0.1222757027
1340.92725,0.1236412749
1339.64160,0.1250602603
1338.35596,0.1263169795
1337.07031,0.1272313148
1335.78467,0.1278597116
1334.49902,0.1283916086
1333.21338,0.1289662272
1331.92773,0.1296380758
1330.64209,0.1304195821
1329.35645,0.1312729865
1328.07080,0.1320846528
1326.78516,0.1327408105
1325.49951,0.1332405210
1324.21387,0.1336764544
1322.92822,0.1341221929
1321.64258,0.1345886141
1320.35693,0.1350514293
1319.07129,0.1354654431
1317.78564,0.1357902884
1316.50000,0.1360401660
1315.21436,0.1362589747
1313.92871,0.1364331990
1312.64307,0.1364899725
1311.35742,0.1363881230
1310.07178,0.1361631155
1308.78613,0.1358795762
1307.50049,0.1355831921
1306.21484,0.1352988183
1304.92920,0.1350405067
1303.64355,0.1348080784
1302.35791,0.1345707923
1301.07227,0.1342667341
1299.78662,0.1338517219
1298.50098,0.1333582252
1297.21533,0.1328819394
1295.92969,0.1324963123
1294.64404,0.1321849078
1293.35840,0.1318568289
1292.07275,0.1314317137
1290.78711,0.1309197396
1289.50146,0.1304122061
1288.21582,0.1299879998
1286.93018,0.1296429038
1285.64453,0.1293296963
1284.35889,0.1290387958
1283.07324,0.1288139075
1281.78760,0.1287104785
1280.50195,0.1287540644
1279.21631,0.1289207339
1277.93066,0.1291633695
1276.64502,0.1294735074
1275.35938,0.1299054474
1274.07373,0.1305273920
1272.78809,0.1313712448
1271.50244,0.1324374378
1270.21680,0.1337062418
1268.93115,0.1351299286
1267.64551,0.1366598159
1266.35986,0.1383113712
1265.07422,0.1401761919
1263.78857,0.1423527747
1262.50293,0.1448747218
1261.21729,0.1477093101
1259.93164,0.1508025229
1258.64600,0.1541239172
1257.36035,0.1576906592
1256.07471,0.1615586430
1254.78906,0.1657783538
1253.50342,0.1703407764
1252.21777,0.1751569062
1250.93213,0.1800981015
1249.64648,0.1850742400
1248.36084,0.1900724322
1247.07520,0.1951241940
1245.78955,0.2002436370
1244.50391,0.2054077536
1243.21826,0.2105683833
1241.93262,0.2156600803
1240.64697,0.2206014246
1239.36133,0.2253248543
1238.07568,0.2298139781
1236.79004,0.2340988070
1235.50439,0.2381940335
1234.21875,0.2420434058
1232.93311,0.2455474883
1231.64746,0.2486451119
1230.36182,0.2513424456
1229.07617,0.2536474168
1227.79053,0.2555144727
1226.50488,0.2568831742
1225.21924,0.2577512264
1223.93359,0.2581588924
1222.64795,0.2580899596
1221.36230,0.2574266791
1220.07666,0.2560538054
1218.79102,0.2540165186
1217.50537,0.2515355051
1216.21973,0.2488354295
1214.93408,0.2459792644
1213.64844,0.2428886890
1212.36279,0.2394960821
1211.07715,0.2358401269
1209.79150,0.2320274562
1208.50586,0.2281423062
1207.22021,0.2242043018
1205.93457,0.2202024907
1204.64893,0.2161525488
1203.36328,0.2121049762
1202.07764,0.2080888450
1200.79199,0.2040654123
1199.50635,0.1999678761
1198.22070,0.1957840770
1196.93506,0.1915761679
1195.64941,0.1874165833
1194.36377,0.1833315641
1193.07813,0.1793115288
1191.79248,0.1753394008
1190.50684,0.1713835746
1189.22119,0.1673851609
1187.93555,0.1632931381
1186.64990,0.1591142714
1185.36426,0.1548917741
1184.07861,0.1506127268
1182.79297,0.1461714804
1181.50732,0.1414651424
1180.22168,0.1365167052
1178.93604,0.1314716190
1177.65039,0.1264763176
1176.36475,0.1215934902
1175.07910,0.1168369949
1173.79346,0.1122489497
1172.50781,0.1079145446
1171.22217,0.1039168760
1169.93652,0.1003000364
1168.65088,0.0970693305
1167.36523,0.0942082629
1166.07959,0.0916948467
1164.79395,0.0895197317
1163.50830,0.0876970068
1162.22266,0.0862505883
1160.93701,0.0851935744
1159.65137,0.0845282972
1158.36572,0.0842605606
1157.08008,0.0843887478
1155.79443,0.0848734453
1154.50879,0.0856366754
1153.22314,0.0865966082
1151.93750,0.0876869112
1150.65186,0.0888506472
1149.36621,0.0900425911
1148.08057,0.0912413448
1146.79492,0.0924281776
1145.50928,0.0935566500
1144.22363,0.0945777074
1142.93799,0.0954917967
1141.65234,0.0963319391
1140.36670,0.0970982686
1139.08105,0.0977462828
1137.79541,0.0982471630
1136.50977,0.0986185074
1135.22412,0.0988843739
1133.93848,0.0990409479
1132.65283,0.0990771502
1131.36719,0.0989985839
1130.08154,0.0988151208
1128.79590,0.0985274538
1127.51025,0.0981425047
1126.22461,0.0976776555
1124.93896,0.0971206054
1123.65332,0.0964029729
1122.36768,0.0954517722
1121.08203,0.0942779481
1119.79639,0.0929848775
1118.51074,0.0916738734
1117.22510,0.0903600529
1115.93945,0.0889957920
1114.65381,0.0875554681
1113.36816,0.0860707536
1112.08252,0.0845961869
1110.79688,0.0831672847
1109.51123,0.0817839652
1108.22559,0.0804089978
1106.93994,0.0789979920
1105.65430,0.0775521919
1104.36865,0.0761336535
1103.08301,0.0748113915
1101.79736,0.0736074224
1100.51172,0.0725064278
1099.22607,0.0714985728
1097.94043,0.0706016496
1096.65479,0.0698517859
1095.36914,0.0692810938
1094.08350,0.0688999966
1092.79785,0.0687093064
1091.51221,0.0687310174
1090.22656,0.0689972118
1088.94092,0.0695002824
1087.65527,0.0701879561
1086.36963,0.0710138455
1085.08398,0.0719505772
1083.79834,0.0729403049
1082.51270,0.0738732964
1081.22705,0.0746439770
1079.94141,0.0752024800
1078.65576,0.0755424052
1077.37012,0.0756713897
1076.08447,0.0756123587
1074.79883,0.0754185170
1073.51318,0.0751692727
1072.22754,0.0749380067
1070.94189,0.0747596025
1069.65625,0.0746386200
1068.37061,0.0745960549
1067.08496,0.0746906996
1065.79932,0.0749749914
1064.51367,0.0754328370
1063.22803,0.0759822801
1061.94238,0.0765407905
1060.65674,0.0770707130
1059.37109,0.0775481686
1058.08545,0.0779067427
1056.79980,0.0780410916
1055.51416,0.0778825283
1054.22852,0.0774501413
1052.94287,0.0768228322
1051.65723,0.0760845542
1050.37158,0.0753042921
1049.08594,0.0745284930
1047.80029,0.0737688169
1046.51465,0.0730136782
1045.22900,0.0722671002
1043.94336,0.0715499744
1042.65771,0.0708657801
1041.37207,0.0702027828
1040.08643,0.0695749298
1038.80078,0.0690096766
1037.51514,0.0684826151
1036.22949,0.0679157227
1034.94385,0.0672742203
1033.65820,0.0666307285
1032.37256,0.0660922304
1031.08691,0.0656862184
1029.80127,0.0653498620
1028.51563,0.0650156364
1027.22998,0.0646677315
1025.94434,0.0643283576
1024.65869,0.0640349537
1023.37305,0.0638342276
1022.08740,0.0637569055
1020.80176,0.0637773201
1019.51611,0.0638180897
1018.23047,0.0638203993
1016.94482,0.0638083220
1015.65918,0.0638647228
1014.37354,0.0640361831
1013.08789,0.0642709360
1011.80225,0.0644665509
1010.51660,0.0645665899
1009.23096,0.0645915195
1007.94531,0.0645899549
1006.65967,0.0645916983
1005.37402,0.0645998046
1004.08838,0.0645956695
1002.80273,0.0645557493
1001.51709,0.0644841194
1000.23145,0.0644186884
998.94580,0.0643903464
997.66016,0.0643919706
996.37451,0.0644003525
995.08887,0.0644043088
993.80322,0.0644031093
992.51758,0.0643938556
991.23193,0.0643691495
989.94629,0.0643164665
988.66064,0.0642330274
987.37500,0.0641423389
986.08936,0.0640706941
984.80371,0.0639958456
983.51807,0.0638644248
982.23242,0.0636742637
980.94678,0.0634983182
979.66113,0.0634002611
978.37549,0.0633537471
977.08984,0.0632677376
975.80420,0.0630849302
974.51855,0.0628438592
973.23291,0.0626465976
971.94727,0.0625589043
970.66162,0.0625438094
969.37598,0.0625033900
968.09033,0.0623841286
966.80469,0.0622236580
965.51904,0.0620940588
964.23340,0.0620220564
962.94775,0.0619756244
961.66211,0.0619106628
960.37646,0.0617972687
959.09082,0.0616081282
957.80518,0.0613313876
956.51953,0.0610294268
955.23389,0.0608438328
953.94824,0.0608821288
952.66260,0.0611109175
951.37695,0.0614001974
950.09131,0.0616567880
948.80566,0.0618793219
947.52002,0.0621019416
946.23438,0.0623238869
944.94873,0.0624892861
943.66309,0.0625256002
942.37744,0.0624134541
941.09180,0.0622076057
939.80615,0.0619534403
938.52051,0.0616017133
937.23486,0.0610498115
935.94922,0.0602676086
934.66357,0.0593496077
933.37793,0.0584520437
932.09229,0.0576872192
930.80664,0.0570531078
929.52100,0.0564432666
928.23535,0.0557458624
926.94971,0.0549458303
925.66406,0.0541197695
924.37842,0.0533464290
923.09277,0.0526398607
921.80713,0.0519440733
920.52148,0.0511693805
919.23584,0.0502641685
917.95020,0.0492944568
916.66455,0.0484308153
915.37891,0.0478161387
914.09326,0.0474541858
912.80762,0.0472464226
911.52197,0.0471197106
910.23633,0.0470908619
908.95068,0.0472183973
907.66504,0.0475242697
906.37939,0.0479760058
905.09375,0.0485229120
903.80811,0.0491216667
902.52246,0.0497094877
901.23682,0.0501738526
899.95117,0.0503778458
