3999.64014,0.0072551672
3998.35449,0.0069863698
3997.06885,0.0069580660
3995.78320,0.0071750502
3994.49756,0.0073797405
3993.21191,0.0072955461
3991.92627,0.0069343140
3990.64063,0.0065787174
3989.35498,0.0064908681
3988.06934,0.0066967881
3986.78369,0.0070434045
3985.49805,0.0073849270
3984.21240,0.0076771555
3982.92676,0.0079373382
3981.64111,0.0081440490
3980.35547,0.0081947735
3979.06982,0.0080010891
3977.78418,0.0076239640
3976.49854,0.0072623524
3975.21289,0.0070902640
3973.92725,0.0071338387
3972.64160,0.0072983629
3971.35596,0.0074846763
3970.07031,0.0076822154
3968.78467,0.0079704514
3967.49902,0.0084035611
3966.21338,0.0088820700
3964.92773,0.0092103137
3963.64209,0.0092927376
3962.35645,0.0092102354
3961.07080,0.0090912133
3959.78516,0.0089946631
3958.49951,0.0089441100
3957.21387,0.0089588296
3955.92822,0.0089672590
3954.64258,0.0087929089
3953.35693,0.0083442107
3952.07129,0.0077914931
3950.78564,0.0074590258
3949.50000,0.0075129890
3948.21436,0.0077811363
3946.92871,0.0079206498
3945.64307,0.0077969483
3944.35742,0.0075908499
3943.07178,0.0075589237
3941.78613,0.0077595003
3940.50049,0.0080110561
3939.21484,0.0081220269
3937.92920,0.0080771651
3936.64355,0.0079771224
3935.35791,0.0079310890
3934.07227,0.0080366330
3932.78662,0.0083303042
3931.50098,0.0086697508
3930.21533,0.0087756068
3928.92969,0.0085479738
3927.64404,0.0082191220
3926.35840,0.0081117935
3925.07275,0.0084006842
3923.78711,0.0090125296
3922.50146,0.0096169785
3921.21582,0.0098533537
3919.93018,0.0096595641
3918.64453,0.0092987940
3917.35889,0.0090656271
3916.07324,0.0089772474
3914.78760,0.0088353604
3913.50195,0.0085570561
3912.21631,0.0082430234
3910.93066,0.0079857167
3909.64502,0.0077943397
3908.35938,0.0077003422
3907.07373,0.0078567257
3905.78809,0.0084834825
3904.50244,0.0096518621
3903.21680,0.0110363951
3901.93115,0.0120153893
3900.64551,0.0121950852
3899.35986,0.0116386190
3898.07422,0.0106778499
3896.78857,0.0097791897
3895.50293,0.0093110390
3894.21729,0.0093224905
3892.93164,0.0096026612
3891.64600,0.0098436363
3890.36035,0.0098028062
3889.07471,0.0095041711
3887.78906,0.0092358300
3886.50342,0.0092835873
3885.21777,0.0096824858
3883.93213,0.0101322513
3882.64648,0.0103362463
3881.36084,0.0103416545
3880.07520,0.0102457786
3878.78955,0.0099751791
3877.50391,0.0096016815
3876.21826,0.0094471294
3874.93262,0.0097229863
3873.64697,0.0103281615
3872.36133,0.0109894266
3871.07568,0.0115250982
3869.79004,0.0118241180
3868.50439,0.0117368232
3867.21875,0.0113702845
3865.93311,0.0111920191
3864.64746,0.0115418714
3863.36182,0.0121896546
3862.07617,0.0123807145
3860.79053,0.0116707394
3859.50488,0.0104624759
3858.21924,0.0094532669
3856.93359,0.0090566939
3855.64795,0.0093242899
3854.36230,0.0100958459
3853.07666,0.0109999143
3851.79102,0.0113262301
3850.50537,0.0107198758
3849.21973,0.0096418308
3847.93408,0.0086100204
3846.64844,0.0079577435
3845.36279,0.0078729894
3844.07715,0.0083414130
3842.79150,0.0091363657
3841.50586,0.0099457270
3840.22021,0.0105824303
3838.93457,0.0110819871
3837.64893,0.0115594445
3836.36328,0.0119124399
3835.07764,0.0118049113
3833.79199,0.0110980812
3832.50635,0.0100226998
3831.22070,0.0089403577
3829.93506,0.0080590751
3828.64941,0.0073872181
3827.36377,0.0069310791
3826.07813,0.0067870705
3824.79248,0.0070209107
3823.50684,0.0076044425
3822.22119,0.0085218120
3820.93555,0.0097019952
3819.64990,0.0107562011
3818.36426,0.0112515744
3817.07861,0.0111813946
3815.79297,0.0105943391
3814.50732,0.0094618127
3813.22168,0.0080986852
3811.93604,0.0070120455
3810.65039,0.0063999896
3809.36475,0.0061974670
3808.07910,0.0063501843
3806.79346,0.0068872613
3805.50781,0.0077174953
3804.22217,0.0085576633
3802.93652,0.0092647849
3801.65088,0.0098970747
3800.36523,0.0103584891
3799.07959,0.0103491303
3797.79395,0.0098298136
3796.50830,0.0090551069
3795.22266,0.0082863458
3793.93701,0.0076978393
3792.65137,0.0073387208
3791.36572,0.0071154721
3790.08008,0.0068745585
3788.79443,0.0065842359
3787.50879,0.0064669317
3786.22314,0.0068108151
3784.93750,0.0075596613
3783.65186,0.0082426276
3782.36621,0.0085185394
3781.08057,0.0085820323
3779.79492,0.0087652784
3778.50928,0.0089578517
3777.22363,0.0086890282
3775.93799,0.0078345323
3774.65234,0.0068095783
3773.36670,0.0061038937
3772.08105,0.0059863776
3770.79541,0.0064704525
3769.50977,0.0072946246
3768.22412,0.0080000348
3766.93848,0.0083115436
3765.65283,0.0083768275
3764.36719,0.0084911902
3763.08154,0.0087589128
3761.79590,0.0090753008
3760.51025,0.0093287583
3759.22461,0.0095327478
3757.93896,0.0097760130
3756.65332,0.0100736972
3755.36768,0.0103548029
3754.08203,0.0106238900
3752.79639,0.0110093923
3751.51074,0.0115896706
3750.22510,0.0120751644
3748.93945,0.0119372373
3747.65381,0.0112839332
3746.36816,0.0107365111
3745.08252,0.0106817232
3743.79688,0.0110994084
3742.51123,0.0115709808
3741.22559,0.0117263710
3739.93994,0.0116271852
3738.65430,0.0115312384
3737.36865,0.0117452815
3736.08301,0.0125688221
3734.79736,0.0139419576
3733.51172,0.0150705669
3732.22607,0.0151919331
3730.94043,0.0145521611
3729.65479,0.0138238771
3728.36914,0.0133789247
3727.08350,0.0132784015
3725.79785,0.0134203853
3724.51221,0.0136116417
3723.22656,0.0136775943
3721.94092,0.0135481833
3720.65527,0.0131848902
3719.36963,0.0125158262
3718.08398,0.0115448218
3716.79834,0.0104672499
3715.51270,0.0096115796
3714.22705,0.0092927907
3712.94141,0.0096929157
3711.65576,0.0106867366
3710.37012,0.0116130933
3709.08447,0.0116830245
3707.79883,0.0109427562
3706.51318,0.0100149391
3705.22754,0.0093880584
3703.94189,0.0093049295
3702.65625,0.0097398227
3701.37061,0.0103055239
3700.08496,0.0104758414
3698.79932,0.0101479124
3697.51367,0.0096408771
3696.22803,0.0091856979
3694.94238,0.0087990891
3693.65674,0.0085304976
3692.37109,0.0086122649
3691.08545,0.0093034748
3689.79980,0.0104643330
3688.51416,0.0111882472
3687.22852,0.0105913421
3685.94287,0.0091085816
3684.65723,0.0077061658
3683.37158,0.0068362425
3682.08594,0.0065617925
3680.80029,0.0068254350
3679.51465,0.0074963435
3678.22900,0.0084080752
3676.94336,0.0094398800
3675.65771,0.0104023675
3674.37207,0.0108486582
3673.08643,0.0106602609
3671.80078,0.0104602221
3670.51514,0.0106853312
3669.22949,0.0109538259
3667.94385,0.0104229413
3666.65820,0.0090380860
3665.37256,0.0075667212
3664.08691,0.0065504918
3662.80127,0.0060722083
3661.51563,0.0059832018
3660.22998,0.0061501525
3658.94434,0.0066187717
3657.65869,0.0075333477
3656.37305,0.0088213589
3655.08740,0.0100123947
3653.80176,0.0107098194
3652.51611,0.0111642629
3651.23047,0.0120135797
3649.94482,0.0137675768
3648.65918,0.0161525980
3647.37354,0.0176085867
3646.08789,0.0172712952
3644.80225,0.0161850005
3643.51660,0.0153199844
3642.23096,0.0149014099
3640.94531,0.0148279052
3639.65967,0.0149736954
3638.37402,0.0152361691
3637.08838,0.0154850660
3635.80273,0.0156858750
3634.51709,0.0161031634
3633.23145,0.0171397589
3631.94580,0.0188746359
3630.66016,0.0209819898
3629.37451,0.0230823103
3628.08887,0.0248801429
3626.80322,0.0261580087
3625.51758,0.0270018727
3624.23193,0.0276352465
3622.94629,0.0281115919
3621.66064,0.0284413826
3620.37500,0.0287791695
3619.08936,0.0293183085
3617.80371,0.0299187917
3616.51807,0.0301778633
3615.23242,0.0300318468
3613.94678,0.0297976211
3612.66113,0.0298287831
3611.37549,0.0303641222
3610.08984,0.0314088985
3608.80420,0.0326435715
3607.51855,0.0335874818
3606.23291,0.0340366177
3604.94727,0.0342916846
3603.66162,0.0347466245
3602.37598,0.0355065316
3601.09033,0.0363930687
3599.80469,0.0370334126
3598.51904,0.0370466933
3597.23340,0.0363667794
3595.94775,0.0353581794
3594.66211,0.0346056819
3593.37646,0.0345683433
3592.09082,0.0352262408
3590.80518,0.0360790119
3589.51953,0.0365236960
3588.23389,0.0362192541
3586.94824,0.0354161151
3585.66260,0.0349381901
3584.37695,0.0352437869
3583.09131,0.0360174701
3581.80566,0.0368205458
3580.52002,0.0373170972
3579.23438,0.0372642949
3577.94873,0.0368129089
3576.66309,0.0365258940
3575.37744,0.0366325080
3574.09180,0.0365809724
3572.80615,0.0358893313
3571.52051,0.0351600498
3570.23486,0.0356457718
3568.94922,0.0379189514
3567.66357,0.0410203822
3566.37793,0.0426802598
3565.09229,0.0414435863
3563.80664,0.0386241637
3562.52100,0.0361759551
3561.23535,0.0346638821
3559.94971,0.0339273065
3558.66406,0.0338527784
3557.37842,0.0342571735
3556.09277,0.0346570946
3554.80713,0.0345990360
3553.52148,0.0340764895
3552.23584,0.0333762392
3550.95020,0.0326209404
3549.66455,0.0318327770
3548.37891,0.0313920341
3547.09326,0.0319341235
3545.80762,0.0335365832
3544.52197,0.0351048410
3543.23633,0.0351753235
3541.95068,0.0335486643
3540.66504,0.0314361714
3539.37939,0.0301686171
3538.09375,0.0301721450
3536.80811,0.0309109055
3535.52246,0.0314530320
3534.23682,0.0310908314
3532.95117,0.0297156461
3531.66553,0.0278654881
3530.37988,0.0263510235
3529.09424,0.0256451536
3527.80859,0.0255349129
3526.52295,0.0254549198
3525.23730,0.0251558907
3523.95166,0.0248184986
3522.66602,0.0246966574
3521.38037,0.0248428397
3520.09473,0.0250029396
3518.80908,0.0246784650
3517.52344,0.0234860871
3516.23779,0.0215491243
3514.95215,0.0193502940
3513.66650,0.0172142219
3512.38086,0.0151384007
3511.09521,0.0131845437
3509.80957,0.0117721697
3508.52393,0.0113072330
3507.23828,0.0115530631
3505.95264,0.0117874891
3504.66699,0.0117122494
3503.38135,0.0117470622
3502.09570,0.0121093402
3500.81006,0.0119490502
3499.52441,0.0103672650
3498.23877,0.0079525234
3496.95313,0.0063837813
3495.66748,0.0067033861
3494.38184,0.0083412556
3493.09619,0.0097257132
3491.81055,0.0096252086
3490.52490,0.0080362642
3489.23926,0.0062043993
3487.95361,0.0054340567
3486.66797,0.0053649154
3485.38232,0.0040286230
3484.09668,0.0002010511
3482.81104,-0.0049718758
3481.52539,-0.0092001008
3480.23975,-0.0112067079
3478.95410,-0.0110998349
3477.66846,-0.0092703970
3476.38281,-0.0060112257
3475.09717,-0.0021535933
3473.81152,0.0008474528
3472.52588,0.0017632510
3471.24023,0.0004452079
3469.95459,-0.0021606507
3468.66895,-0.0048338659
3467.38330,-0.0070612854
3466.09766,-0.0091527570
3464.81201,-0.0114668664
3463.52637,-0.0136189191
3462.24072,-0.0148433354
3460.95508,-0.0151253249
3459.66943,-0.0158012491
3458.38379,-0.0184034165
3457.09814,-0.0226214416
3455.81250,-0.0260986444
3454.52686,-0.0270443372
3453.24121,-0.0266310368
3451.95557,-0.0275352392
3450.66992,-0.0302553549
3449.38428,-0.0324021354
3448.09863,-0.0321038365
3446.81299,-0.0304128397
3445.52734,-0.0293579604
3444.24170,-0.0287593268
3442.95605,-0.0270987209
3441.67041,-0.0245615933
3440.38477,-0.0230789315
3439.09912,-0.0237723980
3437.81348,-0.0262474101
3436.52783,-0.0301427320
3435.24219,-0.0354843885
3433.95654,-0.0413191244
3432.67090,-0.0452840365
3431.38525,-0.0458630808
3430.09961,-0.0436740220
3428.81396,-0.0407674089
3427.52832,-0.0395415798
3426.24268,-0.0420929305
3424.95703,-0.0486976802
3423.67139,-0.0561541878
3422.38574,-0.0589408353
3421.10010,-0.0535010211
3419.81445,-0.0418128818
3418.52881,-0.0302557852
3417.24316,-0.0242397413
3415.95752,-0.0254064444
3414.67188,-0.0325036533
3413.38623,-0.0429714993
3412.10059,-0.0532519519
3410.81494,-0.0595369451
3409.52930,-0.0604692996
3408.24365,-0.0585417002
3406.95801,-0.0574069694
3405.67236,-0.0579087883
3404.38672,-0.0585675277
3403.10107,-0.0595134720
3401.81543,-0.0629098713
3400.52979,-0.0690965205
3399.24414,-0.0753707886
3397.95850,-0.0793390498
3396.67285,-0.0805454254
3395.38721,-0.0785939842
3394.10156,-0.0731425211
3392.81592,-0.0670639500
3391.53027,-0.0658160299
3390.24463,-0.0722414777
3388.95898,-0.0835325643
3387.67334,-0.0940786600
3386.38770,-0.1001426876
3385.10205,-0.1008658782
3383.81641,-0.0967605487
3382.53076,-0.0888793617
3381.24512,-0.0792478770
3379.95947,-0.0706344247
3378.67383,-0.0656980574
3377.38818,-0.0660207197
3376.10254,-0.0710785240
3374.81689,-0.0782626346
3373.53125,-0.0843780115
3372.24561,-0.0879077315
3370.95996,-0.0901474431
3369.67432,-0.0937063023
3368.38867,-0.0999018401
3367.10303,-0.1070544496
3365.81738,-0.1110063568
3364.53174,-0.1080887094
3363.24609,-0.0987168625
3361.96045,-0.0883099735
3360.67480,-0.0836825073
3359.38916,-0.0878404081
3358.10352,-0.0978301615
3356.81787,-0.1073665470
3355.53223,-0.1109690741
3354.24658,-0.1077350900
3352.96094,-0.1011783332
3351.67529,-0.0955868661
3350.38965,-0.0925388336
3349.10400,-0.0913497135
3347.81836,-0.0907603577
3346.53271,-0.0900475755
3345.24707,-0.0895548239
3343.96143,-0.0907639340
3342.67578,-0.0950895026
3341.39014,-0.1015346646
3340.10449,-0.1064477265
3338.81885,-0.1070918068
3337.53320,-0.1048807502
3336.24756,-0.1037726179
3334.96191,-0.1062739044
3333.67627,-0.1115331650
3332.39063,-0.1164539307
3331.10498,-0.1181409732
3329.81934,-0.1157373413
3328.53369,-0.1111387834
3327.24805,-0.1075142547
3325.96240,-0.1066099331
3324.67676,-0.1072406620
3323.39111,-0.1072909310
3322.10547,-0.1058570594
3320.81982,-0.1038035527
3319.53418,-0.1029777229
3318.24854,-0.1054344475
3316.96289,-0.1117299125
3315.67725,-0.1191787794
3314.39160,-0.1231928021
3313.10596,-0.1214626208
3311.82031,-0.1162237823
3310.53467,-0.1117060035
3309.24902,-0.1102608070
3307.96338,-0.1116628125
3306.67773,-0.1147334501
3305.39209,-0.1182935685
3304.10645,-0.1214887127
3302.82080,-0.1239457577
3301.53516,-0.1253596842
3300.24951,-0.1249927580
3298.96387,-0.1226375625
3297.67822,-0.1201521605
3296.39258,-0.1199363694
3295.10693,-0.1219869405
3293.82129,-0.1240784228
3292.53564,-0.1255005598
3291.25000,-0.1279380769
3289.96436,-0.1326621324
3288.67871,-0.1385962069
3287.39307,-0.1434176564
3286.10742,-0.1459055841
3284.82178,-0.1466530263
3283.53613,-0.1467909813
3282.25049,-0.1460201293
3280.96484,-0.1422255784
3279.67920,-0.1341963708
3278.39355,-0.1245909780
3277.10791,-0.1187682152
3275.82227,-0.1197632328
3274.53662,-0.1252907962
3273.25098,-0.1307351589
3271.96533,-0.1341953427
3270.67969,-0.1371441185
3269.39404,-0.1405795068
3268.10840,-0.1427961886
3266.82275,-0.1421699822
3265.53711,-0.1398485601
3264.25146,-0.1377307624
3262.96582,-0.1352888197
3261.68018,-0.1313070804
3260.39453,-0.1268721968
3259.10889,-0.1244212687
3257.82324,-0.1247176155
3256.53760,-0.1268949807
3255.25195,-0.1305358410
3253.96631,-0.1358035356
3252.68066,-0.1421698928
3251.39502,-0.1483176649
3250.10938,-0.1524699330
3248.82373,-0.1527080536
3247.53809,-0.1489658505
3246.25244,-0.1445239186
3244.96680,-0.1434022039
3243.68115,-0.1460929364
3242.39551,-0.1496685445
3241.10986,-0.1516286284
3239.82422,-0.1514707804
3238.53857,-0.1490210295
3237.25293,-0.1439507157
3235.96729,-0.1372870803
3234.68164,-0.1314324290
3233.39600,-0.1285362393
3232.11035,-0.1293122172
3230.82471,-0.1330931038
3229.53906,-0.1384426206
3228.25342,-0.1439488381
3226.96777,-0.1481588781
3225.68213,-0.1492894590
3224.39648,-0.1465497762
3223.11084,-0.1416997612
3221.82520,-0.1380396187
3220.53955,-0.1371625513
3219.25391,-0.1374588162
3217.96826,-0.1364123076
3216.68262,-0.1337468028
3215.39697,-0.1317082644
3214.11133,-0.1322131753
3212.82568,-0.1342837811
3211.54004,-0.1352803707
3210.25439,-0.1341429651
3208.96875,-0.1324635446
3207.68311,-0.1322113425
3206.39746,-0.1335969567
3205.11182,-0.1356604099
3203.82617,-0.1378020197
3202.54053,-0.1399504691
3201.25488,-0.1416861117
3199.96924,-0.1419615746
3198.68359,-0.1399753094
3197.39795,-0.1361595243
3196.11230,-0.1321564317
3194.82666,-0.1296488345
3193.54102,-0.1290322542
3192.25537,-0.1292032599
3190.96973,-0.1285283715
3189.68408,-0.1260199845
3188.39844,-0.1217688695
3187.11279,-0.1165384278
3185.82715,-0.1113352925
3184.54150,-0.1071062088
3183.25586,-0.1043967754
3181.97021,-0.1030605435
3180.68457,-0.1026717871
3179.39893,-0.1032309458
3178.11328,-0.1050490662
3176.82764,-0.1077864319
3175.54199,-0.1100349873
3174.25635,-0.1103166267
3172.97070,-0.1082436815
3171.68506,-0.1048495844
3170.39941,-0.1017135456
3169.11377,-0.0995838493
3167.82813,-0.0977564231
3166.54248,-0.0950673893
3165.25684,-0.0913058817
3163.97119,-0.0872929767
3162.68555,-0.0839864984
3161.39990,-0.0820300132
3160.11426,-0.0817137063
3158.82861,-0.0826125816
3157.54297,-0.0835695043
3156.25732,-0.0836312249
3154.97168,-0.0828269273
3153.68604,-0.0816801265
3152.40039,-0.0803795457
3151.11475,-0.0786578357
3149.82910,-0.0762071162
3148.54346,-0.0731437430
3147.25781,-0.0701818541
3145.97217,-0.0680371374
3144.68652,-0.0664794222
3143.40088,-0.0644906461
3142.11523,-0.0617176555
3140.82959,-0.0591840409
3139.54395,-0.0581654310
3138.25830,-0.0588265508
3136.97266,-0.0601209775
3135.68701,-0.0605912544
3134.40137,-0.0592147112
3133.11572,-0.0561337098
3131.83008,-0.0527774617
3130.54443,-0.0507127717
3129.25879,-0.0502300970
3127.97314,-0.0503131449
3126.68750,-0.0498568900
3125.40186,-0.0485194698
3124.11621,-0.0464843884
3122.83057,-0.0438352861
3121.54492,-0.0405511484
3120.25928,-0.0369722508
3118.97363,-0.0339424759
3117.68799,-0.0322136469
3116.40234,-0.0317488872
3115.11670,-0.0317255482
3113.83105,-0.0312048178
3112.54541,-0.0297166072
3111.25977,-0.0273491442
3109.97412,-0.0246408936
3108.68848,-0.0223670956
3107.40283,-0.0210642200
3106.11719,-0.0205638669
3104.83154,-0.0201201811
3103.54590,-0.0190883297
3102.26025,-0.0174167659
3100.97461,-0.0155097544
3099.68896,-0.0137765352
3098.40332,-0.0123496298
3097.11768,-0.0110772261
3095.83203,-0.0096680932
3094.54639,-0.0079472447
3093.26074,-0.0060649887
3091.97510,-0.0043730359
3090.68945,-0.0030358324
3089.40381,-0.0018422228
3088.11816,-0.0004569058
3086.83252,0.0012136754
3085.54688,0.0029609678
3084.26123,0.0045103100
3082.97559,0.0057351259
3081.68994,0.0066694226
3080.40430,0.0074400916
3079.11865,0.0082626520
3077.83301,0.0094200671
3076.54736,0.0110769691
3075.26172,0.0130663486
3073.97607,0.0149575118
3072.69043,0.0164037924
3071.40479,0.0173582546
3070.11914,0.0179604366
3068.83350,0.0183673911
3067.54785,0.0187921561
3066.26221,0.0195819009
3064.97656,0.0210393444
3063.69092,0.0230727289
3062.40527,0.0251152683
3061.11963,0.0265511703
3059.83398,0.0272668432
3058.54834,0.0277046263
3057.26270,0.0283296593
3055.97705,0.0291842334
3054.69141,0.0300716236
3053.40576,0.0309966616
3052.12012,0.0321575440
3050.83447,0.0335691348
3049.54883,0.0349768549
3048.26318,0.0361606516
3046.97754,0.0371487550
3045.69189,0.0381067842
3044.40625,0.0391399525
3043.12061,0.0402594693
3041.83496,0.0414481722
3040.54932,0.0426690094
3039.26367,0.0438003950
3037.97803,0.0446783938
3036.69238,0.0453080386
3035.40674,0.0459757186
3034.12109,0.0469955504
3032.83545,0.0483564734
3031.54980,0.0497528277
3030.26416,0.0509259515
3028.97852,0.0518339463
3027.69287,0.0525592789
3026.40723,0.0532482155
3025.12158,0.0540851131
3023.83594,0.0551176928
3022.55029,0.0561385378
3021.26465,0.0569171943
3019.97900,0.0575221702
3018.69336,0.0582399555
3017.40771,0.0591912195
3016.12207,0.0601938590
3014.83643,0.0610351749
3013.55078,0.0617391951
3012.26514,0.0624907240
3010.97949,0.0633703172
3009.69385,0.0642700344
3008.40820,0.0650645345
3007.12256,0.0657736734
3005.83691,0.0665151998
3004.55127,0.0673552603
3003.26563,0.0682599097
3001.97998,0.0691799894
3000.69434,0.0701221451
2999.40869,0.0711030811
2998.12305,0.0720529631
2996.83740,0.0728212446
2995.55176,0.0732992887
2994.26611,0.0735240653
2992.98047,0.0736642182
2991.69482,0.0739388466
2990.40918,0.0745029598
2989.12354,0.0753020942
2987.83789,0.0760468841
2986.55225,0.0764829367
2985.26660,0.0767252147
2983.98096,0.0771737248
2982.69531,0.0780406594
2981.40967,0.0790940374
2980.12402,0.0799328908
2978.83838,0.0804065913
2977.55273,0.0807039589
2976.26709,0.0811117589
2974.98145,0.0817440227
2973.69580,0.0824540406
2972.41016,0.0829842687
2971.12451,0.0832183585
2969.83887,0.0832735151
2968.55322,0.0833309591
2967.26758,0.0834469497
2965.98193,0.0835929066
2964.69629,0.0838199705
2963.41064,0.0842579231
2962.12500,0.0849208981
2960.83936,0.0856058672
2959.55371,0.0860720798
2958.26807,0.0863056555
2956.98242,0.0865224525
2955.69678,0.0869030207
2954.41113,0.0874142498
2953.12549,0.0879198611
2951.83984,0.0883534700
2950.55420,0.0887193978
2949.26855,0.0890215337
2947.98291,0.0892864615
2946.69727,0.0895946920
2945.41162,0.0900029913
2944.12598,0.0904713944
2942.84033,0.0909075588
2941.55469,0.0912397280
2940.26904,0.0914256051
2938.98340,0.0914561823
2937.69775,0.0913693383
2936.41211,0.0912024751
2935.12646,0.0909200385
2933.84082,0.0904649273
2932.55518,0.0898884311
2931.26953,0.0893606171
2929.98389,0.0890307873
2928.69824,0.0889179260
2927.41260,0.0889241844
2926.12695,0.0889176130
2924.84131,0.0888330191
2923.55566,0.0887347907
2922.27002,0.0887477845
2920.98438,0.0889034793
2919.69873,0.0891126469
2918.41309,0.0893206745
2917.12744,0.0896096751
2915.84180,0.0900792107
2914.55615,0.0906854346
2913.27051,0.0912739187
2911.98486,0.0917351916
2910.69922,0.0920599774
2909.41357,0.0922618359
2908.12793,0.0923193693
2906.84229,0.0922137946
2905.55664,0.0919858813
2904.27100,0.0917291492
2902.98535,0.0915403813
2901.69971,0.0914787352
2900.41406,0.0915355608
2899.12842,0.0916265920
2897.84277,0.0916553289
2896.55713,0.0916228145
2895.27148,0.0916446745
2893.98584,0.0918295905
2892.70020,0.0921533555
2891.41455,0.0924698487
2890.12891,0.0926325768
2888.84326,0.0925954133
2887.55762,0.0924139917
2886.27197,0.0921597928
2884.98633,0.0918442756
2883.70068,0.0914622173
2882.41504,0.0911050886
2881.12939,0.0909479037
2879.84375,0.0910553113
2878.55811,0.0912499949
2877.27246,0.0912570953
2875.98682,0.0909755751
2874.70117,0.0905574784
2873.41553,0.0902307630
2872.12988,0.0901033282
2870.84424,0.0901325345
2869.55859,0.0902188495
2868.27295,0.0902886316
2866.98730,0.0903065130
2865.70166,0.0902456045
2864.41602,0.0900760293
2863.13037,0.0898044482
2861.84473,0.0895095170
2860.55908,0.0892894194
2859.27344,0.0891492292
2857.98779,0.0889893770
2856.70215,0.0887348205
2855.41650,0.0884257779
2854.13086,0.0881380439
2852.84521,0.0878864899
2851.55957,0.0876797736
2850.27393,0.0876111090
2848.98828,0.0877829045
2847.70264,0.0881485343
2846.41699,0.0885241628
2845.13135,0.0887637585
2843.84570,0.0888677761
2842.56006,0.0889175534
2841.27441,0.0889587849
2839.98877,0.0889812708
2838.70313,0.0889842659
2837.41748,0.0890017077
2836.13184,0.0890415534
2834.84619,0.0890452042
2833.56055,0.0889557004
2832.27490,0.0888002440
2830.98926,0.0886539593
2829.70361,0.0885451734
2828.41797,0.0884412080
2827.13232,0.0883098766
2825.84668,0.0881427899
2824.56104,0.0879340246
2823.27539,0.0876765177
2821.98975,0.0873851255
2820.70410,0.0870982036
2819.41846,0.0868531018
2818.13281,0.0866539255
2816.84717,0.0864617005
2815.56152,0.0862312913
2814.27588,0.0859618858
2812.99023,0.0856912509
2811.70459,0.0854395106
2810.41895,0.0851892605
2809.13330,0.0849244967
2807.84766,0.0846634433
2806.56201,0.0844453126
2805.27637,0.0842955187
2803.99072,0.0842003524
2802.70508,0.0841129646
2801.41943,0.0839945972
2800.13379,0.0838419795
2798.84814,0.0836594403
2797.56250,0.0834263340
2796.27686,0.0831283480
2794.99121,0.0828075707
2793.70557,0.0825429633
2792.41992,0.0823788419
2791.13428,0.0822928771
2789.84863,0.0822244957
2788.56299,0.0821130797
2787.27734,0.0819199234
2785.99170,0.0816362947
2784.70605,0.0812930539
2783.42041,0.0809550434
2782.13477,0.0806793422
2780.84912,0.0804562196
2779.56348,0.0802176073
2778.27783,0.0799373686
2776.99219,0.0796981752
2775.70654,0.0796090588
2774.42090,0.0796640888
2773.13525,0.0797302052
2771.84961,0.0796829984
2770.56396,0.0795252621
2769.27832,0.0793720335
2767.99268,0.0793359131
2766.70703,0.0794234574
2765.42139,0.0795240477
2764.13574,0.0795043111
2762.85010,0.0793284029
2761.56445,0.0790910274
2760.27881,0.0789343119
2758.99316,0.0789321661
2757.70752,0.0790463388
2756.42188,0.0791760683
2755.13623,0.0792484805
2753.85059,0.0792783126
2752.56494,0.0793424398
2751.27930,0.0794838816
2749.99365,0.0796434358
2748.70801,0.0797102749
2747.42236,0.0796384662
2746.13672,0.0794898495
2744.85107,0.0793578178
2743.56543,0.0792935342
2742.27979,0.0793150663
2740.99414,0.0794366077
2739.70850,0.0796426013
2738.42285,0.0798609555
2737.13721,0.0800032243
2735.85156,0.0800327808
2734.56592,0.0799813420
2733.28027,0.0799084008
2731.99463,0.0798501298
2730.70898,0.0797908008
2729.42334,0.0796826631
2728.13770,0.0795101225
2726.85205,0.0793237090
2725.56641,0.0791868493
2724.28076,0.0791022107
2722.99512,0.0790300667
2721.70947,0.0789698288
2720.42383,0.0789795145
2719.13818,0.0791034847
2717.85254,0.0793036297
2716.56689,0.0794744045
2715.28125,0.0795227140
2713.99561,0.0794483274
2712.70996,0.0793488100
2711.42432,0.0793206245
2710.13867,0.0793462023
2708.85303,0.0793186352
2707.56738,0.0791887715
2706.28174,0.0790415481
2704.99609,0.0789998472
2703.71045,0.0790993497
2702.42480,0.0792845786
2701.13916,0.0794786066
2699.85352,0.0796174780
2698.56787,0.0796672031
2697.28223,0.0796553493
2695.99658,0.0796620399
2694.71094,0.0797365829
2693.42529,0.0798458308
2692.13965,0.0799261034
2690.85400,0.0799647570
2689.56836,0.0799984932
2688.28271,0.0800546035
2686.99707,0.0801287815
2685.71143,0.0802065879
2684.42578,0.0802838728
2683.14014,0.0803701207
2681.85449,0.0804915130
2680.56885,0.0806889459
2679.28320,0.0810012966
2677.99756,0.0814344510
2676.71191,0.0819350854
2675.42627,0.0823988318
2674.14063,0.0827314854
2672.85498,0.0829139203
2671.56934,0.0829958022
2670.28369,0.0830321908
2668.99805,0.0830549076
2667.71240,0.0831017345
2666.42676,0.0832213089
2665.14111,0.0834293813
2663.85547,0.0836900696
2662.56982,0.0839535818
2661.28418,0.0841896310
2659.99854,0.0843881816
2658.71289,0.0845654905
2657.42725,0.0847678035
2656.14160,0.0850286707
2654.85596,0.0853194892
2653.57031,0.0855753496
2652.28467,0.0857704356
2650.99902,0.0859421343
2649.71338,0.0861384571
2648.42773,0.0863658413
2647.14209,0.0865907595
2645.85645,0.0867855102
2644.57080,0.0869596601
2643.28516,0.0871389732
2641.99951,0.0873219445
2640.71387,0.0874819085
2639.42822,0.0876149088
2638.14258,0.0877489448
2636.85693,0.0879001468
2635.57129,0.0880548060
2634.28564,0.0882009268
2633.00000,0.0883379951
2631.71436,0.0884566829
2630.42871,0.0885556117
2629.14307,0.0886743069
2627.85742,0.0888618231
2626.57178,0.0891069844
2625.28613,0.0893392712
2624.00049,0.0895017609
2622.71484,0.0895890594
2621.42920,0.0896314383
2620.14355,0.0896717831
2618.85791,0.0897413939
2617.57227,0.0898252651
2616.28662,0.0898651555
2615.00098,0.0898297504
2613.71533,0.0897686034
2612.42969,0.0897594914
2611.14404,0.0898086205
2609.85840,0.0898362175
2608.57275,0.0897716284
2607.28711,0.0896389782
2606.00146,0.0895336643
2604.71582,0.0895219892
2603.43018,0.0895823017
2602.14453,0.0896429196
2600.85889,0.0896575972
2599.57324,0.0896249786
2598.28760,0.0895420387
2597.00195,0.0893773362
2595.71631,0.0891192853
2594.43066,0.0888385251
2593.14502,0.0886554122
2591.85938,0.0886337012
2590.57373,0.0887256190
2589.28809,0.0888253972
2588.00244,0.0888512880
2586.71680,0.0887784287
2585.43115,0.0886343047
2584.14551,0.0884760097
2582.85986,0.0883496925
2581.57422,0.0882579833
2580.28857,0.0881763697
2579.00293,0.0880899727
2577.71729,0.0879969820
2576.43164,0.0878998041
2575.14600,0.0878111944
2573.86035,0.0877548605
2572.57471,0.0877447575
2571.28906,0.0877827406
2570.00342,0.0878716558
2568.71777,0.0879865810
2567.43213,0.0880410224
2566.14648,0.0879423991
2564.86084,0.0877052769
2563.57520,0.0874576867
2562.28955,0.0873101354
2561.00391,0.0872591212
2559.71826,0.0872355178
2558.43262,0.0872077346
2557.14697,0.0872018412
2555.86133,0.0872379839
2554.57568,0.0872788057
2553.29004,0.0872480497
2552.00439,0.0870956630
2550.71875,0.0868409202
2549.43311,0.0865508541
2548.14746,0.0862800106
2546.86182,0.0860367939
2545.57617,0.0858011544
2544.29053,0.0855562240
2543.00488,0.0853041112
2541.71924,0.0850649104
2540.43359,0.0848673731
2539.14795,0.0847255439
2537.86230,0.0846129954
2536.57666,0.0844669715
2535.29102,0.0842346624
2534.00537,0.0839170590
2532.71973,0.0835650787
2531.43408,0.0832334980
2530.14844,0.0829437226
2528.86279,0.0826807320
2527.57715,0.0824089423
2526.29150,0.0820930079
2525.00586,0.0817224905
2523.72021,0.0813260525
2522.43457,0.0809465274
2521.14893,0.0805887356
2519.86328,0.0802116618
2518.57764,0.0797875971
2517.29199,0.0793540105
2516.00635,0.0789773390
2514.72070,0.0786801875
2513.43506,0.0784229115
2512.14941,0.0781448632
2510.86377,0.0777988806
2509.57813,0.0773710981
2508.29248,0.0769062787
2507.00684,0.0764997005
2505.72119,0.0762194693
2504.43555,0.0760328546
2503.14990,0.0758271813
2501.86426,0.0755030587
2500.57861,0.0750505477
2499.29297,0.0745482892
2498.00732,0.0740984529
2496.72168,0.0737492517
2495.43604,0.0734721944
2494.15039,0.0732065663
2492.86475,0.0729069635
2491.57910,0.0725511834
2490.29346,0.0721421987
2489.00781,0.0717183948
2487.72217,0.0713313967
2486.43652,0.0710003749
2485.15088,0.0707020983
2483.86523,0.0704043061
2482.57959,0.0700824484
2481.29395,0.0697172359
2480.00830,0.0693048760
2478.72266,0.0688758790
2477.43701,0.0684738234
2476.15137,0.0681126639
2474.86572,0.0677641109
2473.58008,0.0673899874
2472.29443,0.0669799447
2471.00879,0.0665614754
2469.72314,0.0661778748
2468.43750,0.0658553317
2467.15186,0.0655898377
2465.86621,0.0653620213
2464.58057,0.0651542321
2463.29492,0.0649452060
2462.00928,0.0646969303
2460.72363,0.0643616766
2459.43799,0.0639165416
2458.15234,0.0633920357
2456.86670,0.0628608167
2455.58105,0.0623909496
2454.29541,0.0620073676
2453.00977,0.0617018342
2451.72412,0.0614690743
2450.43848,0.0613109544
2449.15283,0.0611947998
2447.86719,0.0610335357
2446.58154,0.0607533157
2445.29590,0.0603864081
2444.01025,0.0600461625
2442.72461,0.0597927496
2441.43896,0.0595692396
2440.15332,0.0592995696
2438.86768,0.0589970499
2437.58203,0.0587216020
2436.29639,0.0584749095
2435.01074,0.0581968278
2433.72510,0.0578496717
2432.43945,0.0574603453
2431.15381,0.0570896268
2429.86816,0.0567867421
2428.58252,0.0565593392
2427.29688,0.0563632473
2426.01123,0.0561390705
2424.72559,0.0558704063
2423.43994,0.0555900522
2422.15430,0.0553247556
2420.86865,0.0550664067
2419.58301,0.0548043773
2418.29736,0.0545495339
2417.01172,0.0543065295
2415.72607,0.0540537685
2414.44043,0.0537693985
2413.15479,0.0534584560
2411.86914,0.0531460121
2410.58350,0.0528632887
2409.29785,0.0526372604
2408.01221,0.0524616763
2406.72656,0.0522830114
2405.44092,0.0520546287
2404.15527,0.0518023036
2402.86963,0.0515912846
2401.58398,0.0514306650
2400.29834,0.0512558259
2399.01270,0.0510061495
2397.72705,0.0506797247
2396.44141,0.0503193922
2395.15576,0.0499814264
2393.87012,0.0497097522
2392.58447,0.0495067686
2391.29883,0.0493345931
2390.01318,0.0491730012
2388.72754,0.0490719005
2387.44189,0.0491424799
2386.15625,0.0495133884
2384.87061,0.0502902344
2383.58496,0.0515188798
2382.29932,0.0531743951
2381.01367,0.0551916435
2379.72803,0.0574937984
2378.44238,0.0599862412
2377.15674,0.0625794530
2375.87109,0.0652866438
2374.58545,0.0682611540
2373.29980,0.0716388971
2372.01416,0.0753499717
2370.72852,0.0791789889
2369.44287,0.0830165818
2368.15723,0.0869468600
2366.87158,0.0910227522
2365.58594,0.0949913114
2364.30029,0.0983333141
2363.01465,0.1006531566
2361.72900,0.1019902751
2360.44336,0.1026068181
2359.15771,0.1024821475
2357.87207,0.1012035683
2356.58643,0.0984912813
2355.30078,0.0946443081
2354.01514,0.0901925564
2352.72949,0.0854100436
2351.44385,0.0805899873
2350.15820,0.0764158890
2348.87256,0.0736692771
2347.58691,0.0728627220
2346.30127,0.0741424859
2345.01563,0.0771032646
2343.72998,0.0805597976
2342.44434,0.0830577686
2341.15869,0.0839190707
2339.87305,0.0833743364
2338.58740,0.0820460990
2337.30176,0.0806124210
2336.01611,0.0795477405
2334.73047,0.0789885521
2333.44482,0.0788082555
2332.15918,0.0787314996
2330.87354,0.0784498006
2329.58789,0.0777873918
2328.30225,0.0767487511
2327.01660,0.0753770769
2325.73096,0.0737017691
2324.44531,0.0718528852
2323.15967,0.0700568706
2321.87402,0.0684200674
2320.58838,0.0667949989
2319.30273,0.0649440289
2318.01709,0.0628179461
2316.73145,0.0606440380
2315.44580,0.0587678291
2314.16016,0.0573963560
2312.87451,0.0564399101
2311.58887,0.0555877239
2310.30322,0.0545646511
2309.01758,0.0532974936
2307.73193,0.0518605225
2306.44629,0.0503645018
2305.16064,0.0489397645
2303.87500,0.0477253757
2302.58936,0.0467793569
2301.30371,0.0460057929
2300.01807,0.0452275351
2298.73242,0.0443418659
2297.44678,0.0433879048
2296.16113,0.0424720570
2294.87549,0.0416637473
2293.58984,0.0409680121
2292.30420,0.0403552204
2291.01855,0.0397839695
2289.73291,0.0392082520
2288.44727,0.0386028588
2287.16162,0.0379916951
2285.87598,0.0374377929
2284.59033,0.0369941220
2283.30469,0.0366740227
2282.01904,0.0364658348
2280.73340,0.0363582224
2279.44775,0.0363360941
2278.16211,0.0363676175
2276.87646,0.0364130251
2275.59082,0.0364461318
2274.30518,0.0364520438
2273.01953,0.0364102088
2271.73389,0.0363019891
2270.44824,0.0361427851
2269.16260,0.0359853841
2267.87695,0.0358670652
2266.59131,0.0357619002
2265.30566,0.0356116593
2264.02002,0.0354043171
2262.73438,0.0351974964
2261.44873,0.0350512676
2260.16309,0.0349563211
2258.87744,0.0348499157
2257.59180,0.0346880443
2256.30615,0.0344843157
2255.02051,0.0342840925
2253.73486,0.0341196619
2252.44922,0.0339928083
2251.16357,0.0338860527
2249.87793,0.0337889194
2248.59229,0.0337143019
2247.30664,0.0336872824
2246.02100,0.0337111428
2244.73535,0.0337464213
2243.44971,0.0337290466
2242.16406,0.0336183310
2240.87842,0.0334316194
2239.59277,0.0332279690
2238.30713,0.0330519825
2237.02148,0.0328914560
2235.73584,0.0326996408
2234.45020,0.0324603468
2233.16455,0.0322209932
2231.87891,0.0320568457
2230.59326,0.0320035592
2229.30762,0.0320270769
2228.02197,0.0320532210
2226.73633,0.0320268832
2225.45068,0.0319474451
2224.16504,0.0318567082
2222.87939,0.0317942835
2221.59375,0.0317639001
2220.30811,0.0317391083
2219.02246,0.0316971168
2217.73682,0.0316446871
2216.45117,0.0316062123
2215.16553,0.0315872803
2213.87988,0.0315577462
2212.59424,0.0314807855
2211.30859,0.0313585885
2210.02295,0.0312403813
2208.73730,0.0311833862
2207.45166,0.0312068909
2206.16602,0.0312841386
2204.88037,0.0313656032
2203.59473,0.0314045548
2202.30908,0.0313684642
2201.02344,0.0312459730
2199.73779,0.0310585815
2198.45215,0.0308626276
2197.16650,0.0307169612
2195.88086,0.0306395646
2194.59521,0.0306028705
2193.30957,0.0305736233
2192.02393,0.0305399653
2190.73828,0.0304963663
2189.45264,0.0304334741
2188.16699,0.0303579029
2186.88135,0.0302981976
2185.59570,0.0302798469
2184.31006,0.0303094089
2183.02441,0.0303844418
2181.73877,0.0304897856
2180.45313,0.0305767655
2179.16748,0.0305876788
2177.88184,0.0305139981
2176.59619,0.0304074585
2175.31055,0.0303212870
2174.02490,0.0302667189
2172.73926,0.0302362479
2171.45361,0.0302403253
2170.16797,0.0302961674
2168.88232,0.0303919911
2167.59668,0.0304845329
2166.31104,0.0305396877
2165.02539,0.0305661261
2163.73975,0.0306010973
2162.45410,0.0306686256
2161.16846,0.0307656713
2159.88281,0.0308813881
2158.59717,0.0310067832
2157.31152,0.0311233699
2156.02588,0.0312059168
2154.74023,0.0312439948
2153.45459,0.0312560983
2152.16895,0.0312777385
2150.88330,0.0313401669
2149.59766,0.0314493328
2148.31201,0.0315789580
2147.02637,0.0316943340
2145.74072,0.0317829475
2144.45508,0.0318523310
2143.16943,0.0319063216
2141.88379,0.0319494754
2140.59814,0.0320045352
2139.31250,0.0320933536
2138.02686,0.0322040692
2136.74121,0.0323109105
2135.45557,0.0324245058
2134.16992,0.0325807035
2132.88428,0.0327754244
2131.59863,0.0329490080
2130.31299,0.0330522880
2129.02734,0.0331006721
2127.74170,0.0331489518
2126.45605,0.0332311243
2125.17041,0.0333342850
2123.88477,0.0334232301
2122.59912,0.0334831476
2121.31348,0.0335472077
2120.02783,0.0336744674
2118.74219,0.0338899940
2117.45654,0.0341513343
2116.17090,0.0343905762
2114.88525,0.0345781781
2113.59961,0.0347268283
2112.31396,0.0348461308
2111.02832,0.0349347182
2109.74268,0.0350176506
2108.45703,0.0351462960
2107.17139,0.0353425071
2105.88574,0.0355728008
2104.60010,0.0357935242
2103.31445,0.0359928645
2102.02881,0.0361805372
2100.74316,0.0363682695
2099.45752,0.0365721285
2098.17188,0.0367890745
2096.88623,0.0369644053
2095.60059,0.0370364301
2094.31494,0.0370363183
2093.02930,0.0370880812
2091.74365,0.0372737162
2090.45801,0.0375466123
2089.17236,0.0378074981
2087.88672,0.0380215012
2086.60107,0.0382158794
2085.31543,0.0384061560
2084.02979,0.0385812148
2082.74414,0.0387442857
2081.45850,0.0389240943
2080.17285,0.0391413942
2078.88721,0.0393858999
2077.60156,0.0396258943
2076.31592,0.0398371629
2075.03027,0.0400284678
2073.74463,0.0402322076
2072.45898,0.0404604189
2071.17334,0.0406768136
2069.88770,0.0408360660
2068.60205,0.0409512855
2067.31641,0.0410952456
2066.03076,0.0413210392
2064.74512,0.0416007303
2063.45947,0.0418566316
2062.17383,0.0420474820
2060.88818,0.0422031321
2059.60254,0.0423818119
2058.31689,0.0426109843
2057.03125,0.0428645089
2055.74561,0.0430909358
2054.45996,0.0432688072
2053.17432,0.0434298739
2051.88867,0.0436124913
2050.60303,0.0438042320
2049.31738,0.0439642072
2048.03174,0.0440990552
2046.74609,0.0442697406
2045.46045,0.0445095524
2044.17480,0.0447735675
2042.88916,0.0449909791
2041.60352,0.0451406725
2040.31787,0.0452543721
2039.03223,0.0453687832
2037.74658,0.0454984047
2036.46094,0.0456445664
2035.17529,0.0458076969
2033.88965,0.0459930375
2032.60400,0.0462131612
2031.31836,0.0464762039
2030.03271,0.0467626378
2028.74707,0.0470191464
2027.46143,0.0471923128
2026.17578,0.0472750291
2024.89014,0.0473137610
2023.60449,0.0473715812
2022.31885,0.0474843271
2021.03320,0.0476565883
2019.74756,0.0478824973
2018.46191,0.0481507108
2017.17627,0.0484245643
2015.89063,0.0486410893
2014.60498,0.0487547480
2013.31934,0.0487718917
2012.03369,0.0487365834
2010.74805,0.0486959293
2009.46240,0.0486819670
2008.17676,0.0487080328
2006.89111,0.0487697199
2005.60547,0.0488553382
2004.31982,0.0489545092
2003.03418,0.0490548871
2001.74854,0.0491403639
2000.46289,0.0492060855
1999.17725,0.0492647700
1997.89160,0.0493289642
1996.60596,0.0494091250
1995.32031,0.0495353751
1994.03467,0.0497461259
1992.74902,0.0500215366
1991.46338,0.0502509475
1990.17773,0.0503236316
1988.89209,0.0502430983
1987.60645,0.0500992984
1986.32080,0.0499641746
1985.03516,0.0498658195
1983.74951,0.0498221219
1982.46387,0.0498426259
1981.17822,0.0498933457
1979.89258,0.0499096960
1978.60693,0.0498642251
1977.32129,0.0497957058
1976.03564,0.0497552976
1974.75000,0.0497507714
1973.46436,0.0497580841
1972.17871,0.0497618020
1970.89307,0.0497670546
1969.60742,0.0497838892
1968.32178,0.0498083010
1967.03613,0.0498114377
1965.75049,0.0497597940
1964.46484,0.0496630520
1963.17920,0.0495749786
1961.89355,0.0495348834
1960.60791,0.0495301224
1959.32227,0.0495225824
1958.03662,0.0494828671
1956.75098,0.0493894629
1955.46533,0.0492328405
1954.17969,0.0490411483
1952.89404,0.0488741696
1951.60840,0.0487719774
1950.32275,0.0487264842
1949.03711,0.0487084351
1947.75146,0.0487113930
1946.46582,0.0487691090
1945.18018,0.0489203483
1943.89453,0.0491276383
1942.60889,0.0492377691
1941.32324,0.0491069444
1940.03760,0.0487818234
1938.75195,0.0484432317
1937.46631,0.0481958576
1936.18066,0.0480134748
1934.89502,0.0478347205
1933.60938,0.0476404987
1932.32373,0.0474462137
1931.03809,0.0472650975
1929.75244,0.0470948704
1928.46680,0.0469276831
1927.18115,0.0467885807
1925.89551,0.0467557199
1924.60986,0.0468843356
1923.32422,0.0470835045
1922.03857,0.0471504107
1920.75293,0.0470013469
1919.46729,0.0467500128
1918.18164,0.0465001687
1916.89600,0.0462127887
1915.61035,0.0458445437
1914.32471,0.0454887189
1913.03906,0.0452767797
1911.75342,0.0452363305
1910.46777,0.0452702567
1909.18213,0.0452250950
1907.89648,0.0450029187
1906.61084,0.0446394607
1905.32520,0.0442557819
1904.03955,0.0439365953
1902.75391,0.0436812714
1901.46826,0.0434544198
1900.18262,0.0432480425
1898.89697,0.0430905372
1897.61133,0.0430158488
1896.32568,0.0430161059
1895.04004,0.0430138484
1893.75439,0.0429267362
1892.46875,0.0427753776
1891.18311,0.0426537059
1889.89746,0.0425863452
1888.61182,0.0424874164
1887.32617,0.0422893204
1886.04053,0.0420309976
1884.75488,0.0417745970
1883.46924,0.0415368080
1882.18359,0.0413125232
1880.89795,0.0410968103
1879.61230,0.0408777855
1878.32666,0.0406484157
1877.04102,0.0404310673
1875.75537,0.0402621403
1874.46973,0.0401625782
1873.18408,0.0401523001
1871.89844,0.0402882360
1870.61279,0.0406362750
1869.32715,0.0411228761
1868.04150,0.0414017290
1866.75586,0.0411333479
1865.47021,0.0404400192
1864.18457,0.0397127979
1862.89893,0.0391887054
1861.61328,0.0388697907
1860.32764,0.0386390164
1859.04199,0.0383962318
1857.75635,0.0381275825
1856.47070,0.0378786996
1855.18506,0.0376869291
1853.89941,0.0375526734
1852.61377,0.0374726951
1851.32813,0.0374677032
1850.04248,0.0375510678
1848.75684,0.0376944393
1847.47119,0.0378666408
1846.18555,0.0380821116
1844.89990,0.0383227989
1843.61426,0.0384069532
1842.32861,0.0381425917
1841.04297,0.0376412272
1839.75732,0.0371860340
1838.47168,0.0369384252
1837.18604,0.0368574299
1835.90039,0.0367927067
1834.61475,0.0366859399
1833.32910,0.0366553254
1832.04346,0.0368468650
1830.75781,0.0372328162
1829.47217,0.0375485830
1828.18652,0.0375503898
1826.90088,0.0373246595
1825.61523,0.0370795093
1824.32959,0.0368308015
1823.04395,0.0364776328
1821.75830,0.0360465534
1820.47266,0.0356905088
1819.18701,0.0354965292
1817.90137,0.0354126580
1816.61572,0.0353445299
1815.33008,0.0352806486
1814.04443,0.0353012867
1812.75879,0.0354729332
1811.47314,0.0357362330
1810.18750,0.0358941369
1808.90186,0.0357991122
1807.61621,0.0355391465
1806.33057,0.0353267007
1805.04492,0.0352970771
1803.75928,0.0354831293
1802.47363,0.0358573645
1801.18799,0.0363065451
1799.90234,0.0366487019
1798.61670,0.0368096121
1797.33105,0.0369080156
1796.04541,0.0371137038
1794.75977,0.0375477672
1793.47412,0.0382384956
1792.18848,0.0389499180
1790.90283,0.0392086208
1789.61719,0.0389347114
1788.33154,0.0385913439
1787.04590,0.0385876372
1785.76025,0.0390305929
1784.47461,0.0398051292
1783.18896,0.0407321379
1781.90332,0.0417326204
1780.61768,0.0428216532
1779.33203,0.0439754091
1778.04639,0.0451334976
1776.76074,0.0463488288
1775.47510,0.0478318855
1774.18945,0.0498597808
1772.90381,0.0525887832
1771.61816,0.0556874424
1770.33252,0.0584539101
1769.04688,0.0607727878
1767.76123,0.0631356388
1766.47559,0.0658207759
1765.18994,0.0687900409
1763.90430,0.0722275153
1762.61865,0.0766529068
1761.33301,0.0821435079
1760.04736,0.0878698155
1758.76172,0.0933455154
1757.47607,0.0991251469
1756.19043,0.1055510715
1754.90479,0.1120981127
1753.61914,0.1185134202
1752.33350,0.1256167889
1751.04785,0.1345711648
1749.76221,0.1454742998
1748.47656,0.1566304862
1747.19092,0.1663748920
1745.90527,0.1748469472
1744.61963,0.1829893440
1743.33398,0.1913116425
1742.04834,0.1999503970
1740.76270,0.2091263533
1739.47705,0.2186052501
1738.19141,0.2271478772
1736.90576,0.2340829074
1735.62012,0.2407610416
1734.33447,0.2494287640
1733.04883,0.2598002851
1731.76318,0.2681488097
1730.47754,0.2733490467
1729.19189,0.2771742940
1727.90625,0.2806454897
1726.62061,0.2838546932
1725.33496,0.2867898643
1724.04932,0.2894203663
1722.76367,0.2915661931
1721.47803,0.2930863202
1720.19238,0.2940654755
1718.90674,0.2947025597
1717.62109,0.2948930860
1716.33545,0.2937094867
1715.04980,0.2905017138
1713.76416,0.2862100303
1712.47852,0.2817265391
1711.19287,0.2770908475
1709.90723,0.2722109258
1708.62158,0.2671717405
1707.33594,0.2618135214
1706.05029,0.2556733191
1704.76465,0.2489585131
1703.47900,0.2426672578
1702.19336,0.2369045615
1700.90771,0.2304086089
1699.62207,0.2222869843
1698.33643,0.2136644125
1697.05078,0.2053830624
1695.76514,0.1965153068
1694.47949,0.1873742193
1693.19385,0.1795984358
1691.90820,0.1733993590
1690.62256,0.1677499115
1689.33691,0.1620259881
1688.05127,0.1566077322
1686.76563,0.1520091593
1685.47998,0.1476987153
1684.19434,0.1421677172
1682.90869,0.1351194978
1681.62305,0.1285955459
1680.33740,0.1234287918
1679.05176,0.1191635355
1677.76611,0.1155574098
1676.48047,0.1124063283
1675.19482,0.1092827022
1673.90918,0.1061120778
1672.62354,0.1035151184
1671.33789,0.1018023938
1670.05225,0.1003063917
1668.76660,0.0980875045
1667.48096,0.0953040347
1666.19531,0.0928315595
1664.90967,0.0909292325
1663.62402,0.0894467384
1662.33838,0.0882918015
1661.05273,0.0874111205
1659.76709,0.0867074281
1658.48145,0.0861844718
1657.19580,0.0859995559
1655.91016,0.0863804966
1654.62451,0.0875192061
1653.33887,0.0890312269
1652.05322,0.0893635675
1650.76758,0.0884396136
1649.48193,0.0877196342
1648.19629,0.0876283646
1646.91064,0.0879687965
1645.62500,0.0882747993
1644.33936,0.0881544352
1643.05371,0.0876975805
1641.76807,0.0872116834
1640.48242,0.0869964138
1639.19678,0.0873092487
1637.91113,0.0884187073
1636.62549,0.0905291662
1635.33984,0.0928792655
1634.05420,0.0936496705
1632.76855,0.0927480683
1631.48291,0.0914520919
1630.19727,0.0904897526
1628.91162,0.0900355130
1627.62598,0.0899631977
1626.34033,0.0899728760
1625.05469,0.0898249149
1623.76904,0.0893953070
1622.48340,0.0885667875
1621.19775,0.0873951614
1619.91211,0.0861896202
1618.62646,0.0851216465
1617.34082,0.0838750079
1616.05518,0.0818442404
1614.76953,0.0791161507
1613.48389,0.0763912573
1612.19824,0.0739424005
1610.91260,0.0716832280
1609.62695,0.0695162639
1608.34131,0.0673817098
1607.05566,0.0652359575
1605.77002,0.0630914867
1604.48438,0.0610007979
1603.19873,0.0589862801
1601.91309,0.0570367239
1600.62744,0.0551596619
1599.34180,0.0534067601
1598.05615,0.0518459640
1596.77051,0.0504946038
1595.48486,0.0492479205
1594.19922,0.0479176454
1592.91357,0.0464192778
1591.62793,0.0448719859
1590.34229,0.0434415154
1589.05664,0.0421570912
1587.77100,0.0409400463
1586.48535,0.0397601947
1585.19971,0.0386763103
1583.91406,0.0377328955
1582.62842,0.0369113944
1581.34277,0.0362115763
1580.05713,0.0357136950
1578.77148,0.0354973711
1577.48584,0.0354535542
1576.20020,0.0351233073
1574.91455,0.0341537111
1573.62891,0.0330138840
1572.34326,0.0322678350
1571.05762,0.0319359079
1569.77197,0.0316303223
1568.48633,0.0308998674
1567.20068,0.0297905803
1565.91504,0.0287013687
1564.62939,0.0278670602
1563.34375,0.0273652803
1562.05811,0.0272786412
1560.77246,0.0277871601
1559.48682,0.0290546026
1558.20117,0.0302568953
1556.91553,0.0299471635
1555.62988,0.0287588388
1554.34424,0.0275383126
1553.05859,0.0264784768
1551.77295,0.0256049521
1550.48730,0.0248542950
1549.20166,0.0241659842
1547.91602,0.0236742832
1546.63037,0.0236686524
1545.34473,0.0243547224
1544.05908,0.0256910976
1542.77344,0.0273789261
1541.48779,0.0288777296
1540.20215,0.0290314127
1538.91650,0.0271065626
1537.63086,0.0247084405
1536.34521,0.0231414177
1535.05957,0.0224272739
1533.77393,0.0221595746
1532.48828,0.0218359623
1531.20264,0.0213487390
1529.91699,0.0210734718
1528.63135,0.0212677475
1527.34570,0.0218095873
1526.06006,0.0223299470
1524.77441,0.0226305537
1523.48877,0.0228882022
1522.20313,0.0232044086
1520.91748,0.0232729279
1519.63184,0.0228857454
1518.34619,0.0222949274
1517.06055,0.0216443967
1515.77490,0.0208290108
1514.48926,0.0199327245
1513.20361,0.0193144605
1511.91797,0.0192873161
1510.63232,0.0199817009
1509.34668,0.0213851761
1508.06104,0.0231776498
1506.77539,0.0239789989
1505.48975,0.0225275662
1504.20410,0.0204485059
1502.91846,0.0190861318
1501.63281,0.0184804164
1500.34717,0.0184932202
1499.06152,0.0190006960
1497.77588,0.0196793433
1496.49023,0.0199810509
1495.20459,0.0197122283
1493.91895,0.0193207134
1492.63330,0.0193096716
1491.34766,0.0198935382
1490.06201,0.0209047310
1488.77637,0.0216742195
1487.49072,0.0216449704
1486.20508,0.0211257823
1484.91943,0.0206883028
1483.63379,0.0205961391
1482.34814,0.0208480749
1481.06250,0.0212966446
1479.77686,0.0218063202
1478.49121,0.0224123653
1477.20557,0.0232694596
1475.91992,0.0244800821
1474.63428,0.0260208678
1473.34863,0.0276495311
1472.06299,0.0287617408
1470.77734,0.0289889872
1469.49170,0.0288489573
1468.20605,0.0290516410
1466.92041,0.0299664102
1465.63477,0.0315890610
1464.34912,0.0334589593
1463.06348,0.0349949785
1461.77783,0.0362033583
1460.49219,0.0375991352
1459.20654,0.0398446806
1457.92090,0.0435122736
1456.63525,0.0478815697
1455.34961,0.0508343950
1454.06396,0.0523115657
1452.77832,0.0535921268
1451.49268,0.0553219654
1450.20703,0.0576445051
1448.92139,0.0604902692
1447.63574,0.0635827631
1446.35010,0.0664805025
1445.06445,0.0689248964
1443.77881,0.0710381716
1442.49316,0.0730451047
1441.20752,0.0750058144
1439.92188,0.0769014060
1438.63623,0.0788630992
1437.35059,0.0810922384
1436.06494,0.0833643004
1434.77930,0.0850450099
1433.49365,0.0860854238
1432.20801,0.0870082974
1430.92236,0.0881401971
1429.63672,0.0893710777
1428.35107,0.0904157683
1427.06543,0.0912552699
1425.77979,0.0921283290
1424.49414,0.0931806192
1423.20850,0.0943321511
1421.92285,0.0955335647
1420.63721,0.0970326215
1419.35156,0.0990872234
1418.06592,0.1012685448
1416.78027,0.1027425081
1415.49463,0.1035572067
1414.20898,0.1043669209
1412.92334,0.1055576727
1411.63770,0.1071429104
1410.35205,0.1089601889
1409.06641,0.1108420640
1407.78076,0.1127138361
1406.49512,0.1145646349
1405.20947,0.1162764207
1403.92383,0.1175967976
1402.63818,0.1184614971
1401.35254,0.1191048473
1400.06689,0.1197051853
1398.78125,0.1201613322
1397.49561,0.1202670932
1396.20996,0.1199517101
1394.92432,0.1192223877
1393.63867,0.1181191131
1392.35303,0.1168471277
1391.06738,0.1156803593
1389.78174,0.1147474498
1388.49609,0.1139790565
1387.21045,0.1131500155
1385.92480,0.1120738238
1384.63916,0.1108353063
1383.35352,0.1096778810
1382.06787,0.1087752879
1380.78223,0.1081972942
1379.49658,0.1079430878
1378.21094,0.1079619378
1376.92529,0.1081946641
1375.63965,0.1085762531
1374.35400,0.1089535654
1373.06836,0.1091248244
1371.78271,0.1091054901
1370.49707,0.1091695577
1369.21143,0.1095566154
1367.92578,0.1102996469
1366.64014,0.1113305166
1365.35449,0.1126616225
1364.06885,0.1143367440
1362.78320,0.1161740124
1361.49756,0.1177487522
1360.21191,0.1188777238
1358.92627,0.1198423952
1357.64063,0.1209789291
1356.35498,0.1223844215
1355.06934,0.1239569783
1353.78369,0.1255556047
1352.49805,0.1271214038
1351.21240,0.1286696643
1349.92676,0.1302125901
1348.64111,0.1317312568
1347.35547,0.1331993192
1346.06982,0.1346010864
1344.78418,0.1359477192
1343.49854,0.1373137236
1342.21289,0.1388238668
1340.92725,0.1405362785
1339.64160,0.1422872096
1338.35596,0.1437227279
1337.07031,0.1446441263
1335.78467,0.1452231854
1334.49902,0.1457653791
1333.21338,0.1464400142
1331.92773,0.1472479999
1330.64209,0.1481181234
1329.35645,0.1489776224
1328.07080,0.1497626603
1326.78516,0.1504419744
1325.49951,0.1510501355
1324.21387,0.1516568065
1322.92822,0.1523012817
1321.64258,0.1529711038
1320.35693,0.1536058038
1319.07129,0.1541062146
1317.78564,0.1544076800
1316.50000,0.1545667797
1315.21436,0.1546936631
1313.92871,0.1548024714
1312.64307,0.1548092514
1311.35742,0.1546702832
1310.07178,0.1544484347
1308.78613,0.1542272121
1307.50049,0.1540256590
1306.21484,0.1538082212
1304.92920,0.1535441577
1303.64355,0.1532320678
1302.35791,0.1528813839
1301.07227,0.1524986178
1299.78662,0.1521005780
1298.50098,0.1517111212
1297.21533,0.1513325572
1295.92969,0.1509406567
1294.64404,0.1505114585
1293.35840,0.1500321478
1292.07275,0.1494982392
1290.78711,0.1489350349
1289.50146,0.1484077871
1288.21582,0.1479730308
1286.93018,0.1476228237
1285.64453,0.1473020464
1284.35889,0.1469736099
1283.07324,0.1466648132
1281.78760,0.1464643478
1280.50195,0.1464630067
1279.21631,0.1466692984
1277.93066,0.1470050961
1276.64502,0.1474089622
1275.35938,0.1479151100
1274.07373,0.1486124545
1272.78809,0.1495599449
1271.50244,0.1507600397
1270.21680,0.1521787047
1268.93115,0.1537726074
1267.64551,0.1555175334
1266.35986,0.1574301273
1265.07422,0.1595609188
1263.78857,0.1619790792
1262.50293,0.1647560298
1261.21729,0.1679267734
1259.93164,0.1714528203
1258.64600,0.1752550602
1257.36035,0.1792975515
1256.07471,0.1836172193
1254.78906,0.1882675588
1253.50342,0.1932619065
1252.21777,0.1985707283
1250.93213,0.2041416466
1249.64648,0.2099079639
1248.36084,0.2157845199
1247.07520,0.2216807902
1245.78955,0.2275397182
1244.50391,0.2333636135
1243.21826,0.2391709834
1241.93262,0.2449223250
1240.64697,0.2505148053
1239.36133,0.2558653057
1238.07568,0.2609631717
1236.79004,0.2658360898
1235.50439,0.2704927325
1234.21875,0.2749055624
1232.93311,0.2790099978
1231.64746,0.2827084363
1230.36182,0.2859123945
1229.07617,0.2886033952
1227.79053,0.2908172905
1226.50488,0.2925502658
1225.21924,0.2937114835
1223.93359,0.2942015231
1222.64795,0.2940066159
1221.36230,0.2931814790
1220.07666,0.2917701900
1218.79102,0.2897950411
1217.50537,0.2873132229
1216.21973,0.2844330966
1214.93408,0.2812601030
1213.64844,0.2778483927
1212.36279,0.2742124200
1211.07715,0.2703644931
1209.79150,0.2663188279
1208.50586,0.2620719969
1207.22021,0.2576208711
1205.93457,0.2530302405
1204.64893,0.2484532744
1203.36328,0.2440214902
1202.07764,0.2397052348
1200.79199,0.2353235781
1199.50635,0.2307189703
1198.22070,0.2258979231
1196.93506,0.2209932804
1195.64941,0.2161369324
1194.36377,0.2113950700
1193.07813,0.2067737430
1191.79248,0.2022224069
1190.50684,0.1976507306
1189.22119,0.1929979324
1187.93555,0.1882876903
1186.64990,0.1835795790
1185.36426,0.1788702905
1184.07861,0.1740675569
1182.79297,0.1690562218
1181.50732,0.1637756824
1180.22168,0.1582461149
1178.93604,0.1525463164
1177.65039,0.1467672437
1176.36475,0.1409906596
1175.07910,0.1353133768
1173.79346,0.1298643053
1172.50781,0.1247578189
1171.22217,0.1200444624
1169.93652,0.1157389358
1168.65088,0.1118798181
1167.36523,0.1085157171
1166.07959,0.1056436375
1164.79395,0.1032128409
1163.50830,0.1011940017
1162.22266,0.0996032357
1160.93701,0.0984505191
1159.65137,0.0977042690
1158.36572,0.0973302424
1157.08008,0.0973358154
1155.79443,0.0977457687
1154.50879,0.0985324308
1153.22314,0.0995907411
1151.93750,0.1007951498
1150.65186,0.1020812392
1149.36621,0.1034606546
1148.08057,0.1049469635
1146.79492,0.1064717770
1145.50928,0.1078894213
1144.22363,0.1090732887
1142.93799,0.1100025550
1141.65234,0.1107575446
1140.36670,0.1114447415
1139.08105,0.1121212170
1137.79541,0.1127654836
1136.50977,0.1133035570
1135.22412,0.1136686578
1133.93848,0.1138516143
1132.65283,0.1138970703
1131.36719,0.1138457656
1130.08154,0.1136809736
1128.79590,0.1133511737
1127.51025,0.1128495932
1126.22461,0.1122445017
1124.93896,0.1115990356
1123.65332,0.1108760759
1122.36768,0.1099603698
1121.08203,0.1087763458
1119.79639,0.1073529720
1118.51074,0.1057787910
1117.22510,0.1041316465
1115.93945,0.1024577394
1114.65381,0.1007797047
1113.36816,0.0991015956
1112.08252,0.0974277109
1110.79688,0.0957872346
1109.51123,0.0942140818
1108.22559,0.0926840678
1106.93994,0.0911080912
1105.65430,0.0894221514
1104.36865,0.0876794979
1103.08301,0.0860262588
1101.79736,0.0845830142
1100.51172,0.0833553225
1099.22607,0.0822623745
1097.94043,0.0812446401
1096.65479,0.0803339556
1095.36914,0.0796200559
1094.08350,0.0791679621
1092.79785,0.0789866596
1091.51221,0.0790585726
1090.22656,0.0793604627
1088.94092,0.0798595175
1087.65527,0.0805217326
1086.36963,0.0813264847
1085.08398,0.0822513998
1083.79834,0.0832509622
1082.51270,0.0842615068
1081.22705,0.0852118209
1079.94141,0.0860113576
1078.65576,0.0865563527
1077.37012,0.0867842436
1076.08447,0.0867167264
1074.79883,0.0864394009
1073.51318,0.0860517249
1072.22754,0.0856432617
1070.94189,0.0853054598
1069.65625,0.0851423070
1068.37061,0.0852412358
1067.08496,0.0856169388
1065.79932,0.0861999765
1064.51367,0.0868904740
1063.22803,0.0876011699
1061.94238,0.0882522762
1060.65674,0.0887739211
1059.37109,0.0891391784
1058.08545,0.0893560573
1056.79980,0.0894036740
1055.51416,0.0892189667
1054.22852,0.0887653083
1052.94287,0.0880759507
1051.65723,0.0872235894
1050.37158,0.0862850025
1049.08594,0.0853410065
1047.80029,0.0844657496
1046.51465,0.0836862102
1045.22900,0.0829651877
1043.94336,0.0822356343
1042.65771,0.0814577118
1041.37207,0.0806494206
1040.08643,0.0798604861
1038.80078,0.0791105852
1037.51514,0.0783653110
1036.22949,0.0775911286
1034.94385,0.0768254623
1033.65820,0.0761631727
1032.37256,0.0756604224
1031.08691,0.0752711594
1029.80127,0.0749040544
1028.51563,0.0745269954
1027.22998,0.0741834790
1025.94434,0.0739084631
1024.65869,0.0736741573
1023.37305,0.0734386295
1022.08740,0.0732153356
1020.80176,0.0730684325
1019.51611,0.0730467513
1018.23047,0.0731398165
1016.94482,0.0732896701
1015.65918,0.0734347925
1014.37354,0.0735409409
1013.08789,0.0736047179
1011.80225,0.0736445189
1010.51660,0.0736846179
1009.23096,0.0737283230
1007.94531,0.0737498924
1006.65967,0.0737346783
1005.37402,0.0737159923
1004.08838,0.0737379640
1002.80273,0.0737973228
1001.51709,0.0738592073
1000.23145,0.0739147440
998.94580,0.0739755481
997.66016,0.0740291700
996.37451,0.0740446150
995.08887,0.0740126222
993.80322,0.0739484802
992.51758,0.0738663599
991.23193,0.0737770349
989.94629,0.0736906901
988.66064,0.0736140460
987.37500,0.0735552013
986.08936,0.0735236108
984.80371,0.0734981000
983.51807,0.0734186396
982.23242,0.0732423887
980.94678,0.0729908049
979.66113,0.0727161691
978.37549,0.0724496916
977.08984,0.0722058043
975.80420,0.0720095411
974.51855,0.0718854144
973.23291,0.0718297660
971.94727,0.0718100369
970.66162,0.0717806593
969.37598,0.0717004687
968.09033,0.0715589449
966.80469,0.0713957995
965.51904,0.0712732524
964.23340,0.0712139010
962.94775,0.0711673871
961.66211,0.0710455179
960.37646,0.0707956627
959.09082,0.0704529583
957.80518,0.0701243058
956.51953,0.0699123815
955.23389,0.0698462427
953.94824,0.0698912442
952.66260,0.0700227395
951.37695,0.0702596754
950.09131,0.0706099644
948.80566,0.0710187852
947.52002,0.0714090168
946.23438,0.0717460588
944.94873,0.0720190406
943.66309,0.0721806139
942.37744,0.0721638128
941.09180,0.0719503015
939.80615,0.0715676472
938.52051,0.0710243955
937.23486,0.0702981204
935.94922,0.0693992525
934.66357,0.0684106126
933.37793,0.0674477592
932.09229,0.0665910766
930.80664,0.0658429191
929.52100,0.0651170686
928.23535,0.0642740279
926.94971,0.0632162914
925.66406,0.0619928502
924.37842,0.0607928857
923.09277,0.0597846732
921.80713,0.0589458086
920.52148,0.0580990240
919.23584,0.0571376905
917.95020,0.0561681464
916.66455,0.0553856827
915.37891,0.0548473150
914.09326,0.0544403680
912.80762,0.0540659390
911.52197,0.0537820905
910.23633,0.0537365340
908.95068,0.0539985374
907.66504,0.0545033738
906.37939,0.0551516376
905.09375,0.0559032038
903.80811,0.0567314290
902.52246,0.0575068630
901.23682,0.0580014139
899.95117,0.0580487475
