3999.64014,0.0086613260
3998.35449,0.0085749291
3997.06885,0.0083110426
3995.78320,0.0081052799
3994.49756,0.0079832124
3993.21191,0.0077907285
3991.92627,0.0074484134
3990.64063,0.0070978152
3989.35498,0.0069638533
3988.06934,0.0070962370
3986.78369,0.0073382733
3985.49805,0.0075434092
3984.21240,0.0077313827
3982.92676,0.0079874834
3981.64111,0.0082590124
3980.35547,0.0083437087
3979.06982,0.0081245843
3977.78418,0.0077606328
3976.49854,0.0075638494
3975.21289,0.0076803961
3973.92725,0.0079422938
3972.64160,0.0080367653
3971.35596,0.0078094937
3970.07031,0.0074111787
3968.78467,0.0071800235
3967.49902,0.0073561491
3966.21338,0.0078629199
3964.92773,0.0083829500
3963.64209,0.0086269202
3962.35645,0.0085132327
3961.07080,0.0081675518
3959.78516,0.0078512169
3958.49951,0.0078119189
3957.21387,0.0080906944
3955.92822,0.0084710764
3954.64258,0.0086673480
3953.35693,0.0085638678
3952.07129,0.0082755275
3950.78564,0.0080350246
3949.50000,0.0080111884
3948.21436,0.0081352927
3946.92871,0.0081358198
3945.64307,0.0078871446
3944.35742,0.0076117134
3943.07178,0.0076070763
3941.78613,0.0078496356
3940.50049,0.0080047008
3939.21484,0.0078634741
3937.92920,0.0075566061
3936.64355,0.0072941775
3935.35791,0.0071333647
3934.07227,0.0070536393
3932.78662,0.0071247867
3931.50098,0.0074687703
3930.21533,0.0080087632
3928.92969,0.0084274467
3927.64404,0.0085103298
3926.35840,0.0083569828
3925.07275,0.0082051409
3923.78711,0.0081754373
3922.50146,0.0082045607
3921.21582,0.0082142949
3919.93018,0.0082560033
3918.64453,0.0084248343
3917.35889,0.0087011242
3916.07324,0.0089311088
3914.78760,0.0089905141
3913.50195,0.0088814357
3912.21631,0.0086538801
3910.93066,0.0083598578
3909.64502,0.0081127426
3908.35938,0.0080812788
3907.07373,0.0083504114
3905.78809,0.0087933047
3904.50244,0.0091000162
3903.21680,0.0090006618
3901.93115,0.0086022839
3900.64551,0.0083060814
3899.35986,0.0082729943
3898.07422,0.0082827033
3896.78857,0.0081246374
3895.50293,0.0078275744
3894.21729,0.0075274222
3892.93164,0.0073555443
3891.64600,0.0074353791
3890.36035,0.0077850628
3889.07471,0.0082078315
3887.78906,0.0085163210
3886.50342,0.0087481895
3885.21777,0.0090306848
3883.93213,0.0093574282
3882.64648,0.0095946146
3881.36084,0.0096486863
3880.07520,0.0094468119
3878.78955,0.0089424467
3877.50391,0.0083159488
3876.21826,0.0078998497
3874.93262,0.0078744395
3873.64697,0.0081650456
3872.36133,0.0085633397
3871.07568,0.0089626340
3869.79004,0.0093646767
3868.50439,0.0096680867
3867.21875,0.0097614257
3865.93311,0.0097585134
3864.64746,0.0098113324
3863.36182,0.0098718107
3862.07617,0.0097835045
3860.79053,0.0095444424
3859.50488,0.0092405370
3858.21924,0.0088541964
3856.93359,0.0083390912
3855.64795,0.0077864598
3854.36230,0.0074580777
3853.07666,0.0076083685
3851.79102,0.0080112675
3850.50537,0.0081247957
3849.21973,0.0079667605
3847.93408,0.0078124977
3846.64844,0.0078019034
3845.36279,0.0079739839
3844.07715,0.0083265565
3842.79150,0.0088228649
3841.50586,0.0093587786
3840.22021,0.0097623523
3838.93457,0.0099004377
3837.64893,0.0098239621
3836.36328,0.0097200749
3835.07764,0.0096092513
3833.79199,0.0093382802
3832.50635,0.0088742487
3831.22070,0.0083485637
3829.93506,0.0078627095
3828.64941,0.0074109151
3827.36377,0.0070303557
3826.07813,0.0068600681
3824.79248,0.0069572763
3823.50684,0.0071857874
3822.22119,0.0074172355
3820.93555,0.0077088005
3819.64990,0.0081221052
3818.36426,0.0084496960
3817.07861,0.0084674079
3815.79297,0.0082333945
3814.50732,0.0079837926
3813.22168,0.0078589655
3811.93604,0.0077643492
3810.65039,0.0075567905
3809.36475,0.0072176326
3808.07910,0.0068813171
3806.79346,0.0067694015
3805.50781,0.0069884746
3804.22217,0.0073864018
3802.93652,0.0077827428
3801.65088,0.0081298854
3800.36523,0.0083388798
3799.07959,0.0082255062
3797.79395,0.0078037484
3796.50830,0.0073313746
3795.22266,0.0070742923
3793.93701,0.0070963684
3792.65137,0.0072318465
3791.36572,0.0072801998
3790.08008,0.0071742865
3788.79443,0.0070312764
3787.50879,0.0071009467
3786.22314,0.0075454111
3784.93750,0.0081868339
3783.65186,0.0085927788
3782.36621,0.0085656364
3781.08057,0.0083522582
3779.79492,0.0082397787
3778.50928,0.0081875194
3777.22363,0.0079596154
3775.93799,0.0075001093
3774.65234,0.0069680093
3773.36670,0.0065585859
3772.08105,0.0064434693
3770.79541,0.0066905050
3769.50977,0.0071311025
3768.22412,0.0074807787
3766.93848,0.0077340179
3765.65283,0.0081151165
3764.36719,0.0086017037
3763.08154,0.0088687008
3761.79590,0.0087082284
3760.51025,0.0082504107
3759.22461,0.0078559620
3757.93896,0.0079008779
3756.65332,0.0084442059
3755.36768,0.0091593927
3754.08203,0.0097402725
3752.79639,0.0101493960
3751.51074,0.0104763452
3750.22510,0.0106030935
3748.93945,0.0102094971
3747.65381,0.0094277123
3746.36816,0.0088222045
3745.08252,0.0088477507
3743.79688,0.0095940065
3742.51123,0.0105280578
3741.22559,0.0109852059
3739.93994,0.0109244119
3738.65430,0.0106461989
3737.36865,0.0104166567
3736.08301,0.0103663625
3734.79736,0.0104268920
3733.51172,0.0104101617
3732.22607,0.0102894865
3730.94043,0.0101802135
3729.65479,0.0101311123
3728.36914,0.0101721054
3727.08350,0.0103625450
3725.79785,0.0106757795
3724.51221,0.0109087238
3723.22656,0.0108800838
3721.94092,0.0106819347
3720.65527,0.0105094146
3719.36963,0.0103457645
3718.08398,0.0100251110
3716.79834,0.0094897244
3715.51270,0.0088465884
3714.22705,0.0082674017
3712.94141,0.0079466449
3711.65576,0.0080974987
3710.37012,0.0087683955
3709.08447,0.0095753763
3707.79883,0.0100684771
3706.51318,0.0102118561
3705.22754,0.0102006458
3703.94189,0.0101826256
3702.65625,0.0101301316
3701.37061,0.0098673888
3700.08496,0.0093428809
3698.79932,0.0088302083
3697.51367,0.0086150104
3696.22803,0.0086874180
3694.94238,0.0088455053
3693.65674,0.0089453254
3692.37109,0.0090180784
3691.08545,0.0092223976
3689.79980,0.0096835718
3688.51416,0.0102092316
3687.22852,0.0102616027
3685.94287,0.0096477326
3684.65723,0.0087303864
3683.37158,0.0079323547
3682.08594,0.0075019794
3680.80029,0.0075043240
3679.51465,0.0078440737
3678.22900,0.0083646616
3676.94336,0.0089868670
3675.65771,0.0096645132
3674.37207,0.0101723699
3673.08643,0.0103280814
3671.80078,0.0103868563
3670.51514,0.0105929328
3669.22949,0.0107002147
3667.94385,0.0102074035
3666.65820,0.0091825258
3665.37256,0.0081800278
3664.08691,0.0075480719
3662.80127,0.0073488047
3661.51563,0.0075225225
3660.22998,0.0079805236
3658.94434,0.0086553851
3657.65869,0.0095008370
3656.37305,0.0104001127
3655.08740,0.0111282226
3653.80176,0.0115992678
3652.51611,0.0120366262
3651.23047,0.0126770455
3649.94482,0.0134038329
3648.65918,0.0136814676
3647.37354,0.0133204916
3646.08789,0.0130561311
3644.80225,0.0132326828
3643.51660,0.0134986443
3642.23096,0.0135403853
3640.94531,0.0133379223
3639.65967,0.0130937202
3638.37402,0.0130178537
3637.08838,0.0131499888
3635.80273,0.0134260729
3634.51709,0.0138892494
3633.23145,0.0147191985
3631.94580,0.0160134751
3630.66016,0.0176040046
3629.37451,0.0190005321
3628.08887,0.0194904059
3626.80322,0.0190013982
3625.51758,0.0185181014
3624.23193,0.0186333805
3622.94629,0.0191462673
3621.66064,0.0197158828
3620.37500,0.0202019028
3619.08936,0.0205748063
3617.80371,0.0206676144
3616.51807,0.0203737877
3615.23242,0.0199975036
3613.94678,0.0198871698
3612.66113,0.0199941695
3611.37549,0.0200648122
3610.08984,0.0201941989
3608.80420,0.0208397117
3607.51855,0.0221509393
3606.23291,0.0235178936
3604.94727,0.0241591986
3603.66162,0.0240217838
3602.37598,0.0237817559
3601.09033,0.0242434405
3599.80469,0.0255994610
3598.51904,0.0269999709
3597.23340,0.0273245368
3595.94775,0.0264549758
3594.66211,0.0253570229
3593.37646,0.0249840487
3592.09082,0.0252409577
3590.80518,0.0252870508
3589.51953,0.0246487092
3588.23389,0.0237177219
3586.94824,0.0234088209
3585.66260,0.0240051225
3584.37695,0.0246203262
3583.09131,0.0246525742
3581.80566,0.0244285427
3580.52002,0.0243514925
3579.23438,0.0243793093
3577.94873,0.0243470017
3576.66309,0.0243587755
3575.37744,0.0245161522
3574.09180,0.0245458968
3572.80615,0.0241609477
3571.52051,0.0236434750
3570.23486,0.0237125810
3568.94922,0.0248343404
3567.66357,0.0266687423
3566.37793,0.0280475244
3565.09229,0.0280428622
3563.80664,0.0270887893
3562.52100,0.0259445757
3561.23535,0.0247525852
3559.94971,0.0236475766
3558.66406,0.0231124777
3557.37842,0.0232526343
3556.09277,0.0232772678
3554.80713,0.0223398395
3553.52148,0.0207073055
3552.23584,0.0195784345
3550.95020,0.0196109302
3549.66455,0.0201184396
3548.37891,0.0202627070
3547.09326,0.0203631520
3545.80762,0.0214157421
3544.52197,0.0235554148
3543.23633,0.0255589355
3541.95068,0.0263232999
3540.66504,0.0259729084
3539.37939,0.0252394471
3538.09375,0.0244916659
3536.80811,0.0236213095
3535.52246,0.0225275662
3534.23682,0.0214119069
3532.95117,0.0205970090
3531.66553,0.0202954970
3530.37988,0.0205258727
3529.09424,0.0209758505
3527.80859,0.0209428426
3526.52295,0.0199916214
3525.23730,0.0188709870
3523.95166,0.0189793576
3522.66602,0.0205202810
3521.38037,0.0219004825
3520.09473,0.0215171333
3518.80908,0.0195694435
3517.52344,0.0174674075
3516.23779,0.0161501504
3514.95215,0.0156068448
3513.66650,0.0156157529
3512.38086,0.0162229668
3511.09521,0.0173298307
3509.80957,0.0181708690
3508.52393,0.0176592954
3507.23828,0.0154711166
3505.95264,0.0126014119
3504.66699,0.0105576841
3503.38135,0.0100170579
3502.09570,0.0101154260
3500.81006,0.0093394695
3499.52441,0.0075754388
3498.23877,0.0065273666
3496.95313,0.0078108907
3495.66748,0.0110633206
3494.38184,0.0140433032
3493.09619,0.0146080833
3491.81055,0.0125294672
3490.52490,0.0094487695
3489.23926,0.0076845339
3487.95361,0.0086490735
3486.66797,0.0114502227
3485.38232,0.0133998021
3484.09668,0.0127202775
3482.81104,0.0102057876
3481.52539,0.0076311822
3480.23975,0.0054142145
3478.95410,0.0030886433
3477.66846,0.0012120140
3476.38281,0.0010387768
3475.09717,0.0025374412
3473.81152,0.0041729733
3472.52588,0.0047403360
3471.24023,0.0044570593
3469.95459,0.0039632577
3468.66895,0.0031142978
3467.38330,0.0013608584
3466.09766,-0.0010562082
3464.81201,-0.0028739080
3463.52637,-0.0029170560
3462.24072,-0.0015521928
3460.95508,-0.0009836393
3459.66943,-0.0035269952
3458.38379,-0.0090523241
3457.09814,-0.0145562533
3455.81250,-0.0169011857
3454.52686,-0.0157803781
3453.24121,-0.0135790789
3451.95557,-0.0126150381
3450.66992,-0.0134536149
3449.38428,-0.0154613946
3448.09863,-0.0175737068
3446.81299,-0.0183290709
3445.52734,-0.0167544615
3444.24170,-0.0137031516
3442.95605,-0.0112664402
3441.67041,-0.0104134670
3440.38477,-0.0101230377
3439.09912,-0.0091746552
3437.81348,-0.0081876712
3436.52783,-0.0096981162
3435.24219,-0.0154375136
3433.95654,-0.0231856946
3432.67090,-0.0273049567
3431.38525,-0.0240524262
3430.09961,-0.0155633530
3428.81396,-0.0081507340
3427.52832,-0.0069916495
3426.24268,-0.0127184223
3424.95703,-0.0218706056
3423.67139,-0.0291834883
3422.38574,-0.0302400962
3421.10010,-0.0240391474
3419.81445,-0.0138512095
3418.52881,-0.0049659899
3417.24316,-0.0012349187
3415.95752,-0.0038416251
3414.67188,-0.0113840131
3413.38623,-0.0200458821
3412.10059,-0.0253423732
3410.81494,-0.0256218798
3409.52930,-0.0236175340
3408.24365,-0.0236047879
3406.95801,-0.0266239271
3405.67236,-0.0297326595
3404.38672,-0.0303970072
3403.10107,-0.0304725002
3401.81543,-0.0338639952
3400.52979,-0.0411060192
3399.24414,-0.0487761647
3397.95850,-0.0537844859
3396.67285,-0.0552223623
3395.38721,-0.0526941977
3394.10156,-0.0466376841
3392.81592,-0.0405842513
3391.53027,-0.0387876891
3390.24463,-0.0413096175
3388.95898,-0.0445598662
3387.67334,-0.0468343236
3386.38770,-0.0499736927
3385.10205,-0.0540325157
3383.81641,-0.0539680533
3382.53076,-0.0454839580
3381.24512,-0.0315473080
3379.95947,-0.0198045652
3378.67383,-0.0153197823
3377.38818,-0.0177313350
3376.10254,-0.0233039595
3374.81689,-0.0276650563
3373.53125,-0.0282457955
3372.24561,-0.0263957866
3370.95996,-0.0267966054
3369.67432,-0.0332903899
3368.38867,-0.0456688367
3367.10303,-0.0600775667
3365.81738,-0.0711389035
3364.53174,-0.0741386786
3363.24609,-0.0677532181
3361.96045,-0.0558892936
3360.67480,-0.0459694639
3359.38916,-0.0438474566
3358.10352,-0.0495279431
3356.81787,-0.0575164147
3355.53223,-0.0616342984
3354.24658,-0.0602184795
3352.96094,-0.0564043224
3351.67529,-0.0537947305
3350.38965,-0.0533712916
3349.10400,-0.0545789264
3347.81836,-0.0566519089
3346.53271,-0.0581603572
3345.24707,-0.0574963205
3343.96143,-0.0549293011
3342.67578,-0.0527768657
3341.39014,-0.0525505990
3340.10449,-0.0531419404
3338.81885,-0.0530666672
3337.53320,-0.0531339198
3336.24756,-0.0551703908
3334.96191,-0.0591563880
3333.67627,-0.0626881495
3332.39063,-0.0635362566
3331.10498,-0.0620080195
3329.81934,-0.0601530299
3328.53369,-0.0596813634
3327.24805,-0.0603262745
3325.96240,-0.0599644780
3324.67676,-0.0561084151
3323.39111,-0.0480973385
3322.10547,-0.0375714935
3320.81982,-0.0273334403
3319.53418,-0.0200752504
3318.24854,-0.0178495590
3316.96289,-0.0215533562
3315.67725,-0.0299893022
3314.39160,-0.0401135981
3313.10596,-0.0485744178
3311.82031,-0.0530540645
3310.53467,-0.0530521497
3309.24902,-0.0509216264
3307.96338,-0.0516472273
3306.67773,-0.0584763214
3305.39209,-0.0682894215
3304.10645,-0.0745935515
3302.82080,-0.0750566944
3301.53516,-0.0733782426
3300.24951,-0.0737020224
3298.96387,-0.0754356384
3297.67822,-0.0757002756
3296.39258,-0.0737575591
3295.10693,-0.0712470561
3293.82129,-0.0696308836
3292.53564,-0.0696193278
3291.25000,-0.0711941049
3289.96436,-0.0732617080
3288.67871,-0.0745953396
3287.39307,-0.0756748691
3286.10742,-0.0786164925
3284.82178,-0.0838640630
3283.53613,-0.0882585570
3282.25049,-0.0875909775
3280.96484,-0.0806586891
3279.67920,-0.0700447187
3278.39355,-0.0598547943
3277.10791,-0.0535308644
3275.82227,-0.0525672473
3274.53662,-0.0558584705
3273.25098,-0.0606575869
3271.96533,-0.0650875792
3270.67969,-0.0691181943
3269.39404,-0.0722725540
3268.10840,-0.0724401921
3266.82275,-0.0687874407
3265.53711,-0.0638355538
3264.25146,-0.0603909157
3262.96582,-0.0582102202
3261.68018,-0.0564416498
3260.39453,-0.0562140942
3259.10889,-0.0583472066
3257.82324,-0.0608867817
3256.53760,-0.0618614070
3255.25195,-0.0625582635
3253.96631,-0.0655368865
3252.68066,-0.0707582310
3251.39502,-0.0757997185
3250.10938,-0.0781496465
3248.82373,-0.0762714893
3247.53809,-0.0708028227
3246.25244,-0.0654498413
3244.96680,-0.0645200983
3243.68115,-0.0687271655
3242.39551,-0.0748733804
3241.10986,-0.0797402114
3239.82422,-0.0822652951
3238.53857,-0.0823277533
3237.25293,-0.0798235759
3235.96729,-0.0754327551
3234.68164,-0.0705051720
3233.39600,-0.0666015744
3232.11035,-0.0657418519
3230.82471,-0.0697606131
3229.53906,-0.0781121925
3228.25342,-0.0868382528
3226.96777,-0.0912238508
3225.68213,-0.0893953070
3224.39648,-0.0831851661
3223.11084,-0.0758393630
3221.82520,-0.0699828118
3220.53955,-0.0677181780
3219.25391,-0.0706632808
3217.96826,-0.0779082254
3216.68262,-0.0851633996
3215.39697,-0.0880949721
3214.11133,-0.0861816555
3212.82568,-0.0820305720
3211.54004,-0.0779045001
3210.25439,-0.0743543357
3208.96875,-0.0717251897
3207.68311,-0.0709518567
3206.39746,-0.0727731362
3205.11182,-0.0771568865
3203.82617,-0.0831796527
3202.54053,-0.0889277980
3201.25488,-0.0920045003
3199.96924,-0.0908786878
3198.68359,-0.0859317034
3197.39795,-0.0793068781
3196.11230,-0.0737764314
3194.82666,-0.0710855499
3193.54102,-0.0709825903
3192.25537,-0.0717046484
3190.96973,-0.0715665072
3189.68408,-0.0701930523
3188.39844,-0.0682757422
3187.11279,-0.0663218722
3185.82715,-0.0640905052
3184.54150,-0.0612706318
3183.25586,-0.0583700575
3181.97021,-0.0565012023
3180.68457,-0.0564061403
3179.39893,-0.0578551404
3178.11328,-0.0598880351
3176.82764,-0.0614594184
3175.54199,-0.0619850382
3174.25635,-0.0615290776
3172.97070,-0.0603159443
3171.68506,-0.0584070794
3170.39941,-0.0559743643
3169.11377,-0.0535818525
3167.82813,-0.0517979227
3166.54248,-0.0507260785
3165.25684,-0.0501065291
3163.97119,-0.0495343208
3162.68555,-0.0485607646
3161.39990,-0.0471381955
3160.11426,-0.0459735207
3158.82861,-0.0457727462
3157.54297,-0.0462157130
3156.25732,-0.0463510454
3154.97168,-0.0458983444
3153.68604,-0.0453721471
3152.40039,-0.0450434163
3151.11475,-0.0445426255
3149.82910,-0.0434665680
3148.54346,-0.0418448970
3147.25781,-0.0399213396
3145.97217,-0.0378555357
3144.68652,-0.0357350782
3143.40088,-0.0337471813
3142.11523,-0.0321952812
3140.82959,-0.0312976055
3139.54395,-0.0310218297
3138.25830,-0.0312379189
3136.97266,-0.0318216458
3135.68701,-0.0324109755
3134.40137,-0.0322890654
3133.11572,-0.0310664605
3131.83008,-0.0293788668
3130.54443,-0.0282943062
3129.25879,-0.0280553903
3127.97314,-0.0278735477
3126.68750,-0.0269922819
3125.40186,-0.0254671331
3124.11621,-0.0238304269
3122.83057,-0.0223624725
3121.54492,-0.0209765192
3120.25928,-0.0195935033
3118.97363,-0.0183856506
3117.68799,-0.0176323708
3116.40234,-0.0174656026
3115.11670,-0.0177061372
3113.83105,-0.0178851821
3112.54541,-0.0175098125
3111.25977,-0.0164353438
3109.97412,-0.0150247132
3108.68848,-0.0138320038
3107.40283,-0.0131153353
3106.11719,-0.0126593933
3104.83154,-0.0120065594
3103.54590,-0.0108323861
3102.26025,-0.0092289913
3100.97461,-0.0077091791
3099.68896,-0.0068027042
3098.40332,-0.0065249451
3097.11768,-0.0062955376
3095.83203,-0.0054424503
3094.54639,-0.0037943092
3093.26074,-0.0018268082
3091.97510,-0.0002552124
3090.68945,0.0005591343
3089.40381,0.0008314243
3088.11816,0.0009889078
3086.83252,0.0011955308
3085.54688,0.0013706482
3084.26123,0.0015775311
3082.97559,0.0020647505
3081.68994,0.0028912546
3080.40430,0.0037945081
3079.11865,0.0045662094
3077.83301,0.0053312136
3076.54736,0.0063113370
3075.26172,0.0074597900
3073.97607,0.0084811859
3072.69043,0.0091700200
3071.40479,0.0095849829
3070.11914,0.0099040139
3068.83350,0.0102213956
3067.54785,0.0105781853
3066.26221,0.0111147845
3064.97656,0.0120173320
3063.69092,0.0132395681
3062.40527,0.0143879429
3061.11963,0.0150145581
3059.83398,0.0150469020
3058.54834,0.0148808118
3057.26270,0.0150022330
3055.97705,0.0155284703
3054.69141,0.0161860473
3053.40576,0.0167318564
3052.12012,0.0172396190
3050.83447,0.0179037582
3049.54883,0.0187380984
3048.26318,0.0195879117
3046.97754,0.0203346945
3045.69189,0.0209716950
3044.40625,0.0215486344
3043.12061,0.0221504215
3041.83496,0.0228752699
3040.54932,0.0237411521
3039.26367,0.0246269815
3037.97803,0.0253728572
3036.69238,0.0259316061
3035.40674,0.0263929982
3034.12109,0.0268533677
3032.83545,0.0273228791
3031.54980,0.0277998839
3030.26416,0.0283695012
3028.97852,0.0291058104
3027.69287,0.0299115255
3026.40723,0.0306028426
3025.12158,0.0311328545
3023.83594,0.0315834098
3022.55029,0.0319660567
3021.26465,0.0322124325
3019.97900,0.0323605277
3018.69336,0.0325627364
3017.40771,0.0328842811
3016.12207,0.0332483724
3014.83643,0.0336011052
3013.55078,0.0339866467
3012.26514,0.0344449691
3010.97949,0.0349435546
3009.69385,0.0354224071
3008.40820,0.0358320028
3007.12256,0.0361444764
3005.83691,0.0363917984
3004.55127,0.0366789848
3003.26563,0.0371067971
3001.97998,0.0376989320
3000.69434,0.0384137928
2999.40869,0.0391796418
2998.12305,0.0398934893
2996.83740,0.0404498205
2995.55176,0.0408068076
2994.26611,0.0409940705
2992.98047,0.0410529040
2991.69482,0.0410399027
2990.40918,0.0410933979
2989.12354,0.0413721688
2987.83789,0.0418508984
2986.55225,0.0422674678
2985.26660,0.0423973054
2983.98096,0.0423340350
2982.69531,0.0423840620
2981.40967,0.0427149348
2980.12402,0.0432248823
2978.83838,0.0437522046
2977.55273,0.0442758724
2976.26709,0.0448522083
2974.98145,0.0454495437
2973.69580,0.0459333658
2972.41016,0.0461979583
2971.12451,0.0462458096
2969.83887,0.0461566448
2968.55322,0.0460313745
2967.26758,0.0459757186
2965.98193,0.0460676998
2964.69629,0.0463014469
2963.41064,0.0465843044
2962.12500,0.0468064025
2960.83936,0.0469060242
2959.55371,0.0468795821
2958.26807,0.0467895940
2956.98242,0.0467666462
2955.69678,0.0469424501
2954.41113,0.0473376364
2953.12549,0.0478415079
2951.83984,0.0483090878
2950.55420,0.0486530140
2949.26855,0.0488560088
2947.98291,0.0489593185
2946.69727,0.0490553789
2945.41162,0.0492282063
2944.12598,0.0494694375
2942.84033,0.0496791042
2941.55469,0.0497726835
2940.26904,0.0497671664
2938.98340,0.0497512892
2937.69775,0.0497913212
2936.41211,0.0498726144
2935.12646,0.0499179699
2933.84082,0.0498661138
2932.55518,0.0497359075
2931.26953,0.0495971516
2929.98389,0.0494690835
2928.69824,0.0492879339
2927.41260,0.0489967242
2926.12695,0.0486434884
2924.84131,0.0483623818
2923.55566,0.0482763946
2922.27002,0.0484092310
2920.98438,0.0486586913
2919.69873,0.0488762856
2918.41309,0.0490189567
2917.12744,0.0492016450
2915.84180,0.0495448895
2914.55615,0.0500008538
2913.27051,0.0503936261
2911.98486,0.0506055467
2910.69922,0.0506680012
2909.41357,0.0506980494
2908.12793,0.0508005209
2906.84229,0.0510007329
2905.55664,0.0512175262
2904.27100,0.0513125136
2902.98535,0.0512071289
2901.69971,0.0509586670
2900.41406,0.0507081747
2899.12842,0.0505552068
2897.84277,0.0504921935
2896.55713,0.0504550897
2895.27148,0.0504164807
2893.98584,0.0504084602
2892.70020,0.0504601225
2891.41455,0.0505528785
2890.12891,0.0506510995
2888.84326,0.0507357270
2887.55762,0.0507837348
2886.27197,0.0507585332
2884.98633,0.0506520346
2883.70068,0.0505103059
2882.41504,0.0503906906
2881.12939,0.0503227301
2879.84375,0.0503133684
2878.55811,0.0503475554
2877.27246,0.0503607206
2875.98682,0.0502648652
2874.70117,0.0500426553
2873.41553,0.0497954711
2872.12988,0.0496620089
2870.84424,0.0496854559
2869.55859,0.0497713499
2868.27295,0.0497824065
2866.98730,0.0496683381
2865.70166,0.0494923517
2864.41602,0.0493356064
2863.13037,0.0492111892
2861.84473,0.0490833782
2860.55908,0.0489308946
2859.27344,0.0487485193
2857.98779,0.0485216156
2856.70215,0.0482518598
2855.41650,0.0480019972
2854.13086,0.0478616245
2852.84521,0.0478640534
2851.55957,0.0479673035
2850.27393,0.0481210724
2848.98828,0.0483138859
2847.70264,0.0485417619
2846.41699,0.0487709343
2845.13135,0.0489590280
2843.84570,0.0491003618
2842.56006,0.0492147170
2841.27441,0.0492932349
2839.98877,0.0492917597
2838.70313,0.0491940789
2837.41748,0.0490551256
2836.13184,0.0489491522
2834.84619,0.0488887429
2833.56055,0.0488282293
2832.27490,0.0487459414
2830.98926,0.0486820899
2829.70361,0.0486800633
2828.41797,0.0487224534
2827.13232,0.0487565994
2825.84668,0.0487613492
2824.56104,0.0487500839
2823.27539,0.0487174168
2821.98975,0.0486306958
2820.70410,0.0484803058
2819.41846,0.0482987836
2818.13281,0.0481194779
2816.84717,0.0479464345
2815.56152,0.0477707125
2814.27588,0.0475929528
2812.99023,0.0474274196
2811.70459,0.0472939648
2810.41895,0.0471921116
2809.13330,0.0470784605
2807.84766,0.0469087660
2806.56201,0.0467106327
2805.27637,0.0465655811
2803.99072,0.0465003476
2802.70508,0.0464515686
2801.41943,0.0463549010
2800.13379,0.0462103076
2798.84814,0.0460363254
2797.56250,0.0458192602
2796.27686,0.0455604978
2794.99121,0.0453396142
2793.70557,0.0452707745
2792.41992,0.0453761369
2791.13428,0.0455361716
2789.84863,0.0456018113
2788.56299,0.0455423258
2787.27734,0.0454350859
2785.99170,0.0453201346
2784.70605,0.0451481119
2783.42041,0.0448921323
2782.13477,0.0446276404
2780.84912,0.0444422737
2779.56348,0.0443304256
2778.27783,0.0442294702
2776.99219,0.0441229492
2775.70654,0.0440554731
2774.42090,0.0440619476
2773.13525,0.0441209711
2771.84961,0.0441818386
2770.56396,0.0442178361
2769.27832,0.0442399867
2767.99268,0.0442567021
2766.70703,0.0442421399
2765.42139,0.0441556461
2764.13574,0.0439878367
2762.85010,0.0437824726
2761.56445,0.0436251089
2760.27881,0.0436028466
2758.99316,0.0437406115
2757.70752,0.0439602211
2756.42188,0.0441178530
2755.13623,0.0441055894
2753.85059,0.0439393707
2752.56494,0.0437618010
2751.27930,0.0437335707
2749.99365,0.0438835248
2748.70801,0.0440685079
2747.42236,0.0441165604
2746.13672,0.0439998955
2744.85107,0.0438336991
2743.56543,0.0437407009
2742.27979,0.0437638015
2740.99414,0.0438830368
2739.70850,0.0440412946
2738.42285,0.0441551022
2737.13721,0.0441617519
2735.85156,0.0440855548
2734.56592,0.0440356769
2733.28027,0.0441155881
2731.99463,0.0443234034
2730.70898,0.0445381179
2729.42334,0.0446066447
2728.13770,0.0444616899
2726.85205,0.0441627204
2725.56641,0.0438321494
2724.28076,0.0435671844
2722.99512,0.0434137359
2721.70947,0.0433874205
2720.42383,0.0434748754
2719.13818,0.0436181277
2717.85254,0.0437336043
2716.56689,0.0437741093
2715.28125,0.0437606834
2713.99561,0.0437500589
2712.70996,0.0437818393
2711.42432,0.0438624173
2710.13867,0.0439660661
2708.85303,0.0440372229
2707.56738,0.0440114103
2706.28174,0.0438749008
2704.99609,0.0436994173
2703.71045,0.0435985513
2702.42480,0.0436356701
2701.13916,0.0437705927
2699.85352,0.0438961238
2698.56787,0.0439362228
2697.28223,0.0439070649
2695.99658,0.0438777693
2694.71094,0.0438869894
2693.42529,0.0439273156
2692.13965,0.0439913869
2690.85400,0.0440803133
2689.56836,0.0441649593
2688.28271,0.0441962779
2686.99707,0.0441721492
2685.71143,0.0441555865
2684.42578,0.0442080908
2683.14014,0.0443322584
2681.85449,0.0444822200
2680.56885,0.0446077883
2679.28320,0.0447038412
2677.99756,0.0448279269
2676.71191,0.0450418591
2675.42627,0.0453140698
2674.14063,0.0455242768
2672.85498,0.0455873497
2671.56934,0.0455311723
2670.28369,0.0454351716
2668.99805,0.0453575775
2667.71240,0.0453469418
2666.42676,0.0454446822
2665.14111,0.0456293859
2663.85547,0.0458179377
2662.56982,0.0459630005
2661.28418,0.0461063571
2659.99854,0.0462985076
2658.71289,0.0465190485
2657.42725,0.0467054993
2656.14160,0.0468210205
2654.85596,0.0468654819
2653.57031,0.0468699187
2652.28467,0.0469037816
2650.99902,0.0470452756
2649.71338,0.0472987480
2648.42773,0.0475674495
2647.14209,0.0477401689
2645.85645,0.0477949865
2644.57080,0.0477915183
2643.28516,0.0477863178
2641.99951,0.0477942601
2640.71387,0.0478190258
2639.42822,0.0478728078
2638.14258,0.0479573570
2636.85693,0.0480594449
2635.57129,0.0481731817
2634.28564,0.0482912026
2633.00000,0.0483691543
2631.71436,0.0483517945
2630.42871,0.0482640713
2629.14307,0.0482314117
2627.85742,0.0483615436
2626.57178,0.0486234538
2625.28613,0.0488814116
2624.00049,0.0490344875
2622.71484,0.0490869172
2621.42920,0.0490974337
2620.14355,0.0491023920
2618.85791,0.0490983017
2617.57227,0.0490689687
2616.28662,0.0490086675
2615.00098,0.0489358790
2613.71533,0.0488921627
2612.42969,0.0489208400
2611.14404,0.0490259975
2609.85840,0.0491490886
2608.57275,0.0491949208
2607.28711,0.0491064191
2606.00146,0.0489255376
2604.71582,0.0487625375
2603.43018,0.0486874171
2602.14453,0.0486703590
2600.85889,0.0486464128
2599.57324,0.0486044288
2598.28760,0.0485661291
2597.00195,0.0485091358
2595.71631,0.0483755432
2594.43066,0.0481638126
2593.14502,0.0479514897
2591.85938,0.0478170626
2590.57373,0.0477730781
2589.28809,0.0477813743
2588.00244,0.0477961712
2586.71680,0.0477862880
2585.43115,0.0477505699
2584.14551,0.0477213301
2582.85986,0.0477297120
2581.57422,0.0477584600
2580.28857,0.0477496125
2579.00293,0.0476623066
2577.71729,0.0475046039
2576.43164,0.0473144799
2575.14600,0.0471336767
2573.86035,0.0470080115
2572.57471,0.0469823405
2571.28906,0.0470627621
2570.00342,0.0471884161
2568.71777,0.0472610593
2567.43213,0.0472192056
2566.14648,0.0470902808
2564.86084,0.0469746403
2563.57520,0.0469635651
2562.28955,0.0470576286
2561.00391,0.0471679308
2559.71826,0.0472012572
2558.43262,0.0471358150
2557.14697,0.0470052995
2555.86133,0.0468411483
2554.57568,0.0466542281
2553.29004,0.0464576781
2552.00439,0.0462782644
2550.71875,0.0461404361
2549.43311,0.0460495092
2548.14746,0.0459870547
2546.86182,0.0459223092
2545.57617,0.0458375514
2544.29053,0.0457343794
2543.00488,0.0456098355
2541.71924,0.0454540253
2540.43359,0.0452805720
2539.14795,0.0451280102
2537.86230,0.0450020283
2536.57666,0.0448543057
2535.29102,0.0446536317
2534.00537,0.0444487818
2532.71973,0.0443146303
2531.43408,0.0442536585
2530.14844,0.0441912934
2528.86279,0.0440585688
2527.57715,0.0438432321
2526.29150,0.0435622334
2525.00586,0.0432343781
2523.72021,0.0428931974
2522.43457,0.0425865166
2521.14893,0.0423314087
2519.86328,0.0420948230
2518.57764,0.0418448001
2517.29199,0.0416068546
2516.00635,0.0414383449
2514.72070,0.0413670763
2513.43506,0.0413614362
2512.14941,0.0413462296
2510.86377,0.0412385948
2509.57813,0.0410044827
2508.29248,0.0407008938
2507.00684,0.0404329747
2505.72119,0.0402539261
2504.43555,0.0401343554
2503.14990,0.0400282964
2501.86426,0.0399231128
2500.57861,0.0398150049
2499.29297,0.0396759473
2498.00732,0.0394750498
2496.72168,0.0392228439
2495.43604,0.0389756262
2494.15039,0.0387906171
2492.86475,0.0386705101
2491.57910,0.0385569446
2490.29346,0.0383856297
2489.00781,0.0381393097
2487.72217,0.0378408544
2486.43652,0.0375198796
2485.15088,0.0372100621
2483.86523,0.0369596481
2482.57959,0.0368045978
2481.29395,0.0367258303
2480.00830,0.0366510153
2478.72266,0.0365172476
2477.43701,0.0363207608
2476.15137,0.0360979699
2474.86572,0.0358701274
2473.58008,0.0356311910
2472.29443,0.0353865959
2471.00879,0.0351692848
2469.72314,0.0350042991
2468.43750,0.0348751321
2467.15186,0.0347354934
2465.86621,0.0345480740
2464.58057,0.0343198925
2463.29492,0.0341084637
2462.00928,0.0339694321
2460.72363,0.0338861644
2459.43799,0.0337752141
2458.15234,0.0335823074
2456.86670,0.0333422758
2455.58105,0.0331267118
2454.29541,0.0329602621
2453.00977,0.0328180529
2451.72412,0.0326788761
2450.43848,0.0325467475
2449.15283,0.0324214660
2447.86719,0.0322818868
2446.58154,0.0321233720
2445.29590,0.0319959261
2444.01025,0.0319584198
2442.72461,0.0319885127
2441.43896,0.0319826566
2440.15332,0.0318709947
2438.86768,0.0316943340
2437.58203,0.0315403491
2436.29639,0.0314352214
2435.01074,0.0313281491
2433.72510,0.0311636385
2432.43945,0.0309468471
2431.15381,0.0307376888
2429.86816,0.0305858478
2428.58252,0.0304775126
2427.29688,0.0303559061
2426.01123,0.0301971193
2424.72559,0.0300364476
2423.43994,0.0299207345
2422.15430,0.0298570897
2420.86865,0.0298115667
2419.58301,0.0297395978
2418.29736,0.0296199713
2417.01172,0.0294705927
2415.72607,0.0293260906
2414.44043,0.0291946456
2413.15479,0.0290551875
2411.86914,0.0289005544
2410.58350,0.0287560988
2409.29785,0.0286412518
2408.01221,0.0285333171
2406.72656,0.0283906702
2405.44092,0.0282042585
2404.15527,0.0280106664
2402.86963,0.0278585870
2401.58398,0.0277718976
2400.29834,0.0277391449
2399.01270,0.0277149230
2397.72705,0.0276306607
2396.44141,0.0274374355
2395.15576,0.0271633547
2393.87012,0.0269159898
2392.58447,0.0268012714
2391.29883,0.0268385783
2390.01318,0.0269631706
2388.72754,0.0271084365
2387.44189,0.0272879265
2386.15625,0.0276050363
2384.87061,0.0281948671
2383.58496,0.0291553047
2382.29932,0.0305184443
2381.01367,0.0322604179
2379.72803,0.0343149081
2378.44238,0.0365854800
2377.15674,0.0389850028
2375.87109,0.0414894409
2374.58545,0.0441472456
2373.29980,0.0470259562
2372.01416,0.0501527563
2370.72852,0.0534842536
2369.44287,0.0569125041
2368.15723,0.0603217967
2366.87158,0.0636550114
2365.58594,0.0668725595
2364.30029,0.0698131993
2363.01465,0.0721407905
2361.72900,0.0734804720
2360.44336,0.0736637861
2359.15771,0.0728217661
2357.87207,0.0711500049
2356.58643,0.0687071308
2355.30078,0.0655965805
2354.01514,0.0620763786
2352.72949,0.0583489016
2351.44385,0.0546224229
2350.15820,0.0513936542
2348.87256,0.0493154526
2347.58691,0.0488752425
2346.30127,0.0502122641
2345.01563,0.0528922640
2343.72998,0.0557585247
2342.44434,0.0575476736
2341.15869,0.0578639284
2339.87305,0.0571208671
2338.58740,0.0559410416
2337.30176,0.0548660494
2336.01611,0.0541904680
2334.73047,0.0538673848
2333.44482,0.0536227897
2332.15918,0.0532065183
2330.87354,0.0525722206
2329.58789,0.0518275909
2328.30225,0.0510080680
2327.01660,0.0500075966
2325.73096,0.0487854742
2324.44531,0.0475001000
2323.15967,0.0463413931
2321.87402,0.0452891290
2320.58838,0.0441269614
2319.30273,0.0426969416
2318.01709,0.0410840921
2316.73145,0.0395492762
2315.44580,0.0383262485
2314.16016,0.0374702998
2312.87451,0.0368384942
2311.58887,0.0361903906
2310.30322,0.0353441648
2309.01758,0.0342694148
2307.73193,0.0330574065
2306.44629,0.0318238884
2305.16064,0.0306544565
2303.87500,0.0296080001
2302.58936,0.0287136193
2301.30371,0.0279393569
2300.01807,0.0272033419
2298.73242,0.0264527760
2297.44678,0.0257185884
2296.16113,0.0250688083
2294.87549,0.0245301500
2293.58984,0.0240796786
2292.30420,0.0236872938
2291.01855,0.0233251210
2289.73291,0.0229446366
2288.44727,0.0224933252
2287.16162,0.0219732039
2285.87598,0.0214616489
2284.59033,0.0210558102
2283.30469,0.0208029933
2282.01904,0.0206886530
2280.73340,0.0206747539
2279.44775,0.0207288358
2278.16211,0.0208196137
2276.87646,0.0209072586
2275.59082,0.0209537372
2274.30518,0.0209423564
2273.01953,0.0208807755
2271.73389,0.0207884386
2270.44824,0.0206881370
2269.16260,0.0206078123
2267.87695,0.0205691624
2266.59131,0.0205565412
2265.30566,0.0205091555
2264.02002,0.0203693639
2262.73438,0.0201420821
2261.44873,0.0198918581
2260.16309,0.0196792912
2258.87744,0.0195182133
2257.59180,0.0193937905
2256.30615,0.0192967895
2255.02051,0.0192284901
2253.73486,0.0191899873
2252.44922,0.0191808697
2251.16357,0.0192016754
2249.87793,0.0192498378
2248.59229,0.0193142984
2247.30664,0.0193803646
2246.02100,0.0194303617
2244.73535,0.0194284916
2243.44971,0.0193163268
2242.16406,0.0190613586
2240.87842,0.0187254772
2239.59277,0.0184565410
2238.30713,0.0183723569
2237.02148,0.0184491687
2235.73584,0.0185497887
2234.45020,0.0185631327
2233.16455,0.0184980556
2231.87891,0.0184387956
2230.59326,0.0184346065
2229.30762,0.0184574574
2228.02197,0.0184516776
2226.73633,0.0183950700
2225.45068,0.0183034204
2224.16504,0.0182033163
2222.87939,0.0181162674
2221.59375,0.0180520397
2220.30811,0.0180007461
2219.02246,0.0179454088
2217.73682,0.0178939383
2216.45117,0.0178779978
2215.16553,0.0179046206
2213.87988,0.0179313011
2212.59424,0.0179133601
2211.30859,0.0178572293
2210.02295,0.0178022347
2208.73730,0.0177628342
2207.45166,0.0177187193
2206.16602,0.0176612362
2204.88037,0.0176198278
2203.59473,0.0176307447
2202.30908,0.0176917557
2201.02344,0.0177578460
2199.73779,0.0177758615
2198.45215,0.0177223068
2197.16650,0.0176155940
2195.88086,0.0174976978
2194.59521,0.0174025483
2193.30957,0.0173404180
2192.02393,0.0173067171
2190.73828,0.0172888301
2189.45264,0.0172636732
2188.16699,0.0172140859
2186.88135,0.0171582047
2185.59570,0.0171455219
2184.31006,0.0172051452
2183.02441,0.0173124559
2181.73877,0.0174154807
2180.45313,0.0174742267
2179.16748,0.0174743868
2177.88184,0.0174259357
2176.59619,0.0173634794
2175.31055,0.0173318237
2174.02490,0.0173597336
2172.73926,0.0174488947
2171.45361,0.0175801739
2170.16797,0.0177149456
2168.88232,0.0177990813
2167.59668,0.0177893974
2166.31104,0.0176858511
2165.02539,0.0175384227
2163.73975,0.0174207091
2162.45410,0.0173905306
2161.16846,0.0174613446
2159.88281,0.0176053233
2158.59717,0.0177839771
2157.31152,0.0179695822
2156.02588,0.0181356743
2154.74023,0.0182452127
2153.45459,0.0182750449
2152.16895,0.0182457790
2150.88330,0.0182067435
2149.59766,0.0181884151
2148.31201,0.0181895494
2147.02637,0.0182086341
2145.74072,0.0182612222
2144.45508,0.0183574520
2143.16943,0.0184809566
2141.88379,0.0186019018
2140.59814,0.0186954793
2139.31250,0.0187485050
2138.02686,0.0187645331
2136.74121,0.0187646411
2135.45557,0.0187724531
2134.16992,0.0187988337
2132.88428,0.0188501161
2131.59863,0.0189290605
2130.31299,0.0190149453
2129.02734,0.0190639831
2127.74170,0.0190607645
2126.45605,0.0190466996
2125.17041,0.0190689042
2123.88477,0.0191183761
2122.59912,0.0191500280
2121.31348,0.0191584975
2120.02783,0.0192006491
2118.74219,0.0193342455
2117.45654,0.0195449907
2116.17090,0.0197452214
2114.88525,0.0198518354
2113.59961,0.0198679026
2112.31396,0.0198780913
2111.02832,0.0199593939
2109.74268,0.0201127995
2108.45703,0.0202835631
2107.17139,0.0204275604
2105.88574,0.0205435678
2104.60010,0.0206495617
2103.31445,0.0207465403
2102.02881,0.0208165180
2100.74316,0.0208556261
2099.45752,0.0208958238
2098.17188,0.0209724531
2096.88623,0.0210761875
2095.60059,0.0211673100
2094.31494,0.0212374646
2093.02930,0.0213253312
2091.74365,0.0214581117
2090.45801,0.0216093548
2089.17236,0.0217292160
2087.88672,0.0217978284
2086.60107,0.0218327511
2085.31543,0.0218656603
2084.02979,0.0219233781
2082.74414,0.0220165569
2081.45850,0.0221380554
2080.17285,0.0222777072
2078.88721,0.0224335697
2077.60156,0.0225962773
2076.31592,0.0227362160
2075.03027,0.0228331145
2073.74463,0.0229108781
2072.45898,0.0230149962
2071.17334,0.0231546592
2069.88770,0.0232971236
2068.60205,0.0234255679
2067.31641,0.0235686675
2066.03076,0.0237499829
2064.74512,0.0239328779
2063.45947,0.0240502097
2062.17383,0.0240840297
2060.88818,0.0240833424
2059.60254,0.0241102669
2058.31689,0.0241961163
2057.03125,0.0243347362
2055.74561,0.0244891457
2054.45996,0.0246107914
2053.17432,0.0246816687
2051.88867,0.0247306917
2050.60303,0.0247973409
2049.31738,0.0248934943
2048.03174,0.0250168145
2046.74609,0.0251724012
2045.46045,0.0253544152
2044.17480,0.0255252495
2042.88916,0.0256396048
2041.60352,0.0256845597
2040.31787,0.0256846175
2039.03223,0.0256823096
2037.74658,0.0257166121
2036.46094,0.0258021448
2035.17529,0.0259206966
2033.88965,0.0260447785
2032.60400,0.0261702687
2031.31836,0.0263130963
2030.03271,0.0264738798
2028.74707,0.0266239904
2027.46143,0.0267288908
2026.17578,0.0267811697
2024.89014,0.0268080160
2023.60449,0.0268502552
2022.31885,0.0269253012
2021.03320,0.0270116515
2019.74756,0.0270793941
2018.46191,0.0271340311
2017.17627,0.0272145569
2015.89063,0.0273374338
2014.60498,0.0274647344
2013.31934,0.0275415089
2012.03369,0.0275546405
2010.74805,0.0275348928
2009.46240,0.0275171045
2008.17676,0.0275074523
2006.89111,0.0274912640
2005.60547,0.0274663325
2004.31982,0.0274532083
2003.03418,0.0274731442
2001.74854,0.0275278892
2000.46289,0.0276127048
1999.17725,0.0277311727
1997.89160,0.0278770532
1996.60596,0.0280150287
1995.32031,0.0281077009
1994.03467,0.0281553697
1992.74902,0.0281837620
1991.46338,0.0281984005
1990.17773,0.0281840954
1988.89209,0.0281443521
1987.60645,0.0281058494
1986.32080,0.0280820150
1985.03516,0.0280669425
1983.74951,0.0280605908
1982.46387,0.0280753337
1981.17822,0.0281122308
1979.89258,0.0281542949
1978.60693,0.0281855594
1977.32129,0.0282008890
1976.03564,0.0281920489
1974.75000,0.0281477757
1973.46436,0.0280714408
1972.17871,0.0279855113
1970.89307,0.0279147588
1969.60742,0.0278747324
1968.32178,0.0278756712
1967.03613,0.0279111415
1965.75049,0.0279434416
1964.46484,0.0279322285
1963.17920,0.0278833173
1961.89355,0.0278401207
1960.60791,0.0278241429
1959.32227,0.0278105643
1958.03662,0.0277671535
1956.75098,0.0276941434
1955.46533,0.0276125111
1954.17969,0.0275365189
1952.89404,0.0274755154
1951.60840,0.0274402462
1950.32275,0.0274277311
1949.03711,0.0274135843
1947.75146,0.0273816828
1946.46582,0.0273524616
1945.18018,0.0273608156
1943.89453,0.0274014529
1942.60889,0.0274133347
1941.32324,0.0273442492
1940.03760,0.0272199865
1938.75195,0.0271085463
1937.46631,0.0270354804
1936.18066,0.0269723721
1934.89502,0.0268861633
1933.60938,0.0267737098
1932.32373,0.0266506579
1931.03809,0.0265285242
1929.75244,0.0264116209
1928.46680,0.0263042934
1927.18115,0.0262217410
1925.89551,0.0261917152
1924.60986,0.0262271017
1923.32422,0.0262877103
1922.03857,0.0263014082
1920.75293,0.0262494050
1919.46729,0.0261786543
1918.18164,0.0261129756
1916.89600,0.0260170735
1915.61035,0.0258706361
1914.32471,0.0257144962
1913.03906,0.0255945195
1911.75342,0.0255160257
1910.46777,0.0254540704
1909.18213,0.0253729392
1907.89648,0.0252469908
1906.61084,0.0250897892
1905.32520,0.0249398798
1904.03955,0.0248085223
1902.75391,0.0246676151
1901.46826,0.0245004576
1900.18262,0.0243358873
1898.89697,0.0242155213
1897.61133,0.0241508521
1896.32568,0.0241214596
1895.04004,0.0240929741
1893.75439,0.0240393486
1892.46875,0.0239659213
1891.18311,0.0239038598
1889.89746,0.0238666888
1888.61182,0.0238208845
1887.32617,0.0237163007
1886.04053,0.0235496722
1884.75488,0.0233676229
1883.46924,0.0232287124
1882.18359,0.0231613200
1880.89795,0.0231396426
1879.61230,0.0231015012
1878.32666,0.0230029877
1877.04102,0.0228614341
1875.75537,0.0227405243
1874.46973,0.0226901174
1873.18408,0.0227157045
1871.89844,0.0228103604
1870.61279,0.0229751486
1869.32715,0.0231553949
1868.04150,0.0231861975
1866.75586,0.0229589082
1865.47021,0.0226035044
1864.18457,0.0223129429
1862.89893,0.0221442953
1861.61328,0.0220432710
1860.32764,0.0219454300
1859.04199,0.0218308177
1857.75635,0.0217157714
1856.47070,0.0216207542
1855.18506,0.0215427298
1853.89941,0.0214565098
1852.61377,0.0213586371
1851.32813,0.0212928411
1850.04248,0.0213005356
1848.75684,0.0213598609
1847.47119,0.0214135125
1846.18555,0.0214500893
1844.89990,0.0215030722
1843.61426,0.0215567946
1842.32861,0.0215289928
1841.04297,0.0214030687
1839.75732,0.0212511662
1838.47168,0.0211332291
1837.18604,0.0210483093
1835.90039,0.0209609885
1834.61475,0.0208648313
1833.32910,0.0208047330
1832.04346,0.0208348222
1830.75781,0.0209587347
1829.47217,0.0210903734
1828.18652,0.0211172756
1826.90088,0.0210396964
1825.61523,0.0209419746
1824.32959,0.0208570100
1823.04395,0.0207477603
1821.75830,0.0205990709
1820.47266,0.0204565376
1819.18701,0.0203609280
1817.90137,0.0203027949
1816.61572,0.0202520471
1815.33008,0.0202041809
1814.04443,0.0201817807
1812.75879,0.0202024709
1811.47314,0.0202558171
1810.18750,0.0202971809
1808.90186,0.0202828869
1807.61621,0.0202218089
1806.33057,0.0201680064
1805.04492,0.0201768465
1803.75928,0.0202825870
1802.47363,0.0204780865
1801.18799,0.0206877850
1799.90234,0.0208071209
1798.61670,0.0208205357
1797.33105,0.0208147801
1796.04541,0.0208722204
1794.75977,0.0210393444
1793.47412,0.0213492028
1792.18848,0.0217495747
1790.90283,0.0220373329
1789.61719,0.0220934656
1788.33154,0.0220555533
1787.04590,0.0221158564
1785.76025,0.0223635770
1784.47461,0.0227716211
1783.18896,0.0232541095
1781.90332,0.0237719659
1780.61768,0.0243514925
1779.33203,0.0249879956
1778.04639,0.0256144274
1776.76074,0.0262090638
1775.47510,0.0268638581
1774.18945,0.0277423747
1772.90381,0.0289941356
1771.61816,0.0305725429
1770.33252,0.0321801528
1769.04688,0.0336633921
1767.76123,0.0351514593
1766.47559,0.0367313772
1765.18994,0.0383811630
1763.90430,0.0402179211
1762.61865,0.0425360054
1761.33301,0.0453910567
1760.04736,0.0483642295
1758.76172,0.0512337461
1757.47607,0.0543391742
1756.19043,0.0578856915
1754.90479,0.0615482852
1753.61914,0.0650933683
1752.33350,0.0688739121
1751.04785,0.0734940544
1749.76221,0.0791218057
1748.47656,0.0850721449
1747.19092,0.0905373320
1745.90527,0.0954527408
1744.61963,0.1001607031
1743.33398,0.1048712507
1742.04834,0.1096932963
1740.76270,0.1148238927
1739.47705,0.1201679260
1738.19141,0.1249885112
1736.90576,0.1288240850
1735.62012,0.1323607564
1734.33447,0.1368526518
1733.04883,0.1422885656
1731.76318,0.1467929929
1730.47754,0.1497163922
1729.19189,0.1519074291
1727.90625,0.1538338363
1726.62061,0.1554753631
1725.33496,0.1568017155
1724.04932,0.1578412801
1722.76367,0.1585850865
1721.47803,0.1590280980
1720.19238,0.1592216939
1718.90674,0.1592124999
1717.62109,0.1588433832
1716.33545,0.1575903445
1715.04980,0.1552717090
1713.76416,0.1525283307
1712.47852,0.1498270631
1711.19287,0.1471492797
1709.90723,0.1444133669
1708.62158,0.1416344345
1707.33594,0.1387028396
1706.05029,0.1353321820
1704.76465,0.1315646470
1703.47900,0.1278987229
1702.19336,0.1244358718
1700.90771,0.1205963492
1699.62207,0.1160318777
1698.33643,0.1114326492
1697.05078,0.1072087735
1695.76514,0.1027677283
1694.47949,0.0981605425
1693.19385,0.0941701904
1691.90820,0.0909000710
1690.62256,0.0878214538
1689.33691,0.0846169218
1688.05127,0.0815314353
1686.76563,0.0789104030
1685.47998,0.0765336305
1684.19434,0.0736433938
1682.90869,0.0700838119
1681.62305,0.0668910369
1680.33740,0.0644710213
1679.05176,0.0625399202
1677.76611,0.0609288029
1676.48047,0.0595408268
1675.19482,0.0581864752
1673.90918,0.0567586869
1672.62354,0.0554197095
1671.33789,0.0542991087
1670.05225,0.0532492995
1668.76660,0.0520744696
1667.48096,0.0508599430
1666.19531,0.0498011634
1664.90967,0.0489740968
1663.62402,0.0484614111
1662.33838,0.0483085923
1661.05273,0.0482767709
1659.76709,0.0480450168
1658.48145,0.0476680249
1657.19580,0.0474719703
1655.91016,0.0478059053
1654.62451,0.0489504561
1653.33887,0.0505737364
1652.05322,0.0509149805
1650.76758,0.0496441908
1649.48193,0.0484098308
1648.19629,0.0479151011
1646.91064,0.0482219234
1645.62500,0.0489537269
1644.33936,0.0494825169
1643.05371,0.0497393310
1641.76807,0.0499845631
1640.48242,0.0503124110
1639.19678,0.0506425463
1637.91113,0.0509397499
1636.62549,0.0513488725
1635.33984,0.0518874116
1634.05420,0.0520973504
1632.76855,0.0517920665
1631.48291,0.0512819849
1630.19727,0.0508149229
1628.91162,0.0504711419
1627.62598,0.0502256341
1626.34033,0.0499926992
1625.05469,0.0497009866
1623.76904,0.0493275449
1622.48340,0.0488728955
1621.19775,0.0483721308
1619.91211,0.0478818007
1618.62646,0.0473662727
1617.34082,0.0466130711
1616.05518,0.0454185270
1614.76953,0.0439901836
1613.48389,0.0426624119
1612.19824,0.0414784178
1610.91260,0.0403972641
1609.62695,0.0394436680
1608.34131,0.0386131033
1607.05566,0.0377887227
1605.77002,0.0368457660
1604.48438,0.0357837938
1603.19873,0.0347220898
1601.91309,0.0337782018
1600.62744,0.0329294875
1599.34180,0.0320379734
1598.05615,0.0310534649
1596.77051,0.0301045831
1595.48486,0.0293265320
1594.19922,0.0286531989
1592.91357,0.0278854407
1591.62793,0.0269567259
1590.34229,0.0260014068
1589.05664,0.0251787398
1587.77100,0.0245191380
1586.48535,0.0239477865
1585.19971,0.0233899951
1583.91406,0.0228216015
1582.62842,0.0222638939
1581.34277,0.0217771977
1580.05713,0.0214388035
1578.77148,0.0212885980
1577.48584,0.0212564375
1576.20020,0.0211011879
1574.91455,0.0206194837
1573.62891,0.0199897792
1572.34326,0.0194558874
1571.05762,0.0190417226
1569.77197,0.0186466761
1568.48633,0.0181749463
1567.20068,0.0176436044
1565.91504,0.0171337258
1564.62939,0.0167013761
1563.34375,0.0163859446
1562.05811,0.0162344687
1560.77246,0.0163224004
1559.48682,0.0167082921
1558.20117,0.0170538127
1556.91553,0.0168153979
1555.62988,0.0162734613
1554.34424,0.0157350190
1553.05859,0.0152411824
1551.77295,0.0148124518
1550.48730,0.0144821145
1549.20166,0.0142568219
1547.91602,0.0141362241
1546.63037,0.0141560156
1545.34473,0.0143628465
1544.05908,0.0147319995
1542.77344,0.0151119456
1541.48779,0.0152513431
1540.20215,0.0148633718
1538.91650,0.0140425833
1537.63086,0.0133586107
1536.34521,0.0130304964
1535.05957,0.0129618701
1533.77393,0.0129652033
1532.48828,0.0128310993
1531.20264,0.0125615476
1529.91699,0.0123547204
1528.63135,0.0122896349
1527.34570,0.0122637246
1526.06006,0.0121473791
1524.77441,0.0119939679
1523.48877,0.0120199928
1522.20313,0.0123261977
1520.91748,0.0127006602
1519.63184,0.0128321117
1518.34619,0.0127031654
1517.06055,0.0124284457
1515.77490,0.0120404586
1514.48926,0.0115864808
1513.20361,0.0111928694
1511.91797,0.0109884981
1510.63232,0.0110579291
1509.34668,0.0114446683
1508.06104,0.0121046556
1506.77539,0.0126241967
1505.48975,0.0124113457
1504.20410,0.0118097803
1502.91846,0.0113135558
1501.63281,0.0109976567
1500.34717,0.0108383875
1499.06152,0.0108417850
1497.77588,0.0110089406
1496.49023,0.0112342015
1495.20459,0.0113451481
1493.91895,0.0113271326
1492.63330,0.0113237053
1491.34766,0.0114799635
1490.06201,0.0118254200
1488.77637,0.0121681439
1487.49072,0.0122703556
1486.20508,0.0121894144
1484.91943,0.0121250721
1483.63379,0.0121691814
1482.34814,0.0122940289
1481.06250,0.0124197630
1479.77686,0.0125161456
1478.49121,0.0126566561
1477.20557,0.0129422415
1475.91992,0.0134051945
1474.63428,0.0140103130
1473.34863,0.0146744270
1472.06299,0.0152044268
1470.77734,0.0154315773
1469.49170,0.0154876141
1468.20605,0.0156371929
1466.92041,0.0160661731
1465.63477,0.0168344490
1464.34912,0.0177906901
1463.06348,0.0186389480
1461.77783,0.0192861538
1460.49219,0.0199372526
1459.20654,0.0209815819
1457.92090,0.0228786785
1456.63525,0.0253911614
1455.34961,0.0272164587
1454.06396,0.0281162914
1452.77832,0.0288274623
1451.49268,0.0297646578
1450.20703,0.0309990272
1448.92139,0.0324852020
1447.63574,0.0341288783
1446.35010,0.0357592814
1445.06445,0.0372263081
1443.77881,0.0385366604
1442.49316,0.0397660397
1441.20752,0.0409136266
1439.92188,0.0419460274
1438.63623,0.0429446325
1437.35059,0.0440684222
1436.06494,0.0452503189
1434.77930,0.0461459085
1433.49365,0.0466920100
1432.20801,0.0471669175
1430.92236,0.0477630533
1429.63672,0.0484205745
1428.35107,0.0489649102
1427.06543,0.0493804701
1425.77979,0.0498234294
1424.49414,0.0504038893
1423.20850,0.0510649905
1421.92285,0.0517142303
1420.63721,0.0524490587
1419.35156,0.0534957014
1418.06592,0.0547905080
1416.78027,0.0558748245
1415.49463,0.0565675385
1414.20898,0.0571055152
1412.92334,0.0577309541
1411.63770,0.0585379675
1410.35205,0.0594989322
1409.06641,0.0605273098
1407.78076,0.0615581684
1406.49512,0.0625671297
1405.20947,0.0634784549
1403.92383,0.0641439259
1402.63818,0.0645323545
1401.35254,0.0647962689
1400.06689,0.0650623664
1398.78125,0.0652795434
1397.49561,0.0653046668
1396.20996,0.0650856048
1394.92432,0.0646746382
1393.63867,0.0641363636
1392.35303,0.0635359287
1391.06738,0.0629431009
1389.78174,0.0624072924
1388.49609,0.0619350858
1387.21045,0.0614624619
1385.92480,0.0608908907
1384.63916,0.0602147691
1383.35352,0.0595499650
1382.06787,0.0590377226
1380.78223,0.0587621927
1379.49658,0.0587019213
1378.21094,0.0587533042
1376.92529,0.0588359982
1375.63965,0.0589465201
1374.35400,0.0590866022
1373.06836,0.0592039749
1371.78271,0.0592784733
1370.49707,0.0593936145
1369.21143,0.0596423708
1367.92578,0.0600312129
1366.64014,0.0605176724
1365.35449,0.0611207783
1364.06885,0.0619188957
1362.78320,0.0629007295
1361.49756,0.0638743490
1360.21191,0.0646711290
1358.92627,0.0653580129
1357.64063,0.0660992935
1356.35498,0.0669650286
1355.06934,0.0679057613
1353.78369,0.0688407496
1352.49805,0.0697446242
1351.21240,0.0706423372
1349.92676,0.0715374574
1348.64111,0.0723845139
1347.35547,0.0731372088
1346.06982,0.0738037899
1344.78418,0.0744422078
1343.49854,0.0751176551
1342.21289,0.0758806020
1340.92725,0.0767548978
1339.64160,0.0776908621
1338.35596,0.0785307884
1337.07031,0.0791277662
1335.78467,0.0795079693
1334.49902,0.0798234642
1333.21338,0.0801990554
1331.92773,0.0806611478
1330.64209,0.0811633766
1329.35645,0.0816429779
1328.07080,0.0820598304
1326.78516,0.0824182406
1325.49951,0.0827574581
1324.21387,0.0831064731
1322.92822,0.0834545717
1321.64258,0.0837738514
1320.35693,0.0840450153
1319.07129,0.0842506960
1317.78564,0.0843758583
1316.50000,0.0844308734
1315.21436,0.0844478533
1313.92871,0.0844495893
1312.64307,0.0844367296
1311.35742,0.0843958184
1310.07178,0.0843166709
1308.78613,0.0842100307
1307.50049,0.0841064006
1306.21484,0.0840175599
1304.92920,0.0839095786
1303.64355,0.0837334171
1302.35791,0.0834725425
1301.07227,0.0831508562
1299.78662,0.0828144327
1298.50098,0.0825107545
1297.21533,0.0822607800
1295.92969,0.0820393860
1294.64404,0.0817944035
1293.35840,0.0814912170
1292.07275,0.0811395943
1290.78711,0.0807933435
1289.50146,0.0805225447
1288.21582,0.0803609863
1286.93018,0.0802691430
1285.64453,0.0801745132
1284.35889,0.0800570548
1283.07324,0.0799734965
1281.78760,0.0799867287
1280.50195,0.0800869763
1279.21631,0.0802007020
1277.93066,0.0802821293
1276.64502,0.0803697705
1275.35938,0.0805399343
1274.07373,0.0808309838
1272.78809,0.0812425539
1271.50244,0.0817856118
1270.21680,0.0824879333
1268.93115,0.0833503008
1267.64551,0.0843375996
1266.35986,0.0854217410
1265.07422,0.0866151527
1263.78857,0.0879666433
1262.50293,0.0895360857
1261.21729,0.0913551822
1259.93164,0.0933862478
1258.64600,0.0955331475
1257.36035,0.0977269262
1256.07471,0.1000027806
1254.78906,0.1024709120
1253.50342,0.1052044258
1252.21777,0.1081622243
1250.93213,0.1112301573
1249.64648,0.1143250614
1248.36084,0.1174318641
1247.07520,0.1205515936
1245.78955,0.1236686409
1244.50391,0.1267902404
1243.21826,0.1299562454
1241.93262,0.1331534833
1240.64697,0.1362556517
1239.36133,0.1391166598
1238.07568,0.1417123079
1236.79004,0.1441462189
1235.50439,0.1465157270
1234.21875,0.1488071829
1232.93311,0.1509187371
1231.64746,0.1527437270
1230.36182,0.1542329639
1229.07617,0.1554062515
1227.79053,0.1563149840
1226.50488,0.1569780707
1225.21924,0.1573572755
1223.93359,0.1573979557
1222.64795,0.1570711881
1221.36230,0.1563599855
1220.07666,0.1552484035
1218.79102,0.1537713408
1217.50537,0.1520487219
1216.21973,0.1502107829
1214.93408,0.1482918411
1213.64844,0.1462334692
1212.36279,0.1439886391
1211.07715,0.1415942311
1209.79150,0.1391381770
1208.50586,0.1366864145
1207.22021,0.1342470348
1205.93457,0.1317898035
1204.64893,0.1292904019
1203.36328,0.1267579794
1202.07764,0.1242253929
1200.79199,0.1217180118
1199.50635,0.1192351580
1198.22070,0.1167604625
1196.93506,0.1142792925
1195.64941,0.1117869914
1194.36377,0.1092879325
1193.07813,0.1067913324
1191.79248,0.1043030247
1190.50684,0.1018112749
1189.22119,0.0992888585
1187.93555,0.0967240259
1186.64990,0.0941473618
1185.36426,0.0916059688
1184.07861,0.0890957415
1182.79297,0.0865398943
1181.50732,0.0838567391
1180.22168,0.0810382590
1178.93604,0.0781480521
1177.65039,0.0752562284
1176.36475,0.0724017024
1175.07910,0.0696090758
1173.79346,0.0669153705
1172.50781,0.0643651932
1171.22217,0.0619960204
1169.93652,0.0598377660
1168.65088,0.0579177253
1167.36523,0.0562499911
1166.07959,0.0548150353
1164.79395,0.0535694622
1163.50830,0.0524928719
1162.22266,0.0516251884
1160.93701,0.0510390140
1159.65137,0.0507658944
1158.36572,0.0507576056
1157.08008,0.0509210080
1155.79443,0.0511901751
1154.50879,0.0515608490
1153.22314,0.0520618074
1151.93750,0.0527018122
1150.65186,0.0534528941
1149.36621,0.0542748161
1148.08057,0.0551310964
1146.79492,0.0559732430
1145.50928,0.0567352362
1144.22363,0.0573679619
1142.93799,0.0578745157
1141.65234,0.0582911782
1140.36670,0.0586427152
1139.08105,0.0589358993
1137.79541,0.0591887869
1136.50977,0.0594256409
1135.22412,0.0596255660
1133.93848,0.0597185232
1132.65283,0.0596779510
1131.36719,0.0595838167
1130.08154,0.0595359541
1128.79590,0.0595270842
1127.51025,0.0594658032
1126.22461,0.0593038164
1124.93896,0.0590537116
1123.65332,0.0586924106
1122.36768,0.0581475236
1121.08203,0.0574029461
1119.79639,0.0565408766
1118.51074,0.0556549318
1117.22510,0.0547792651
1115.93945,0.0539165623
1114.65381,0.0530772693
1113.36816,0.0522738993
1112.08252,0.0515108667
1110.79688,0.0507854186
1109.51123,0.0500768721
1108.22559,0.0493395515
1106.93994,0.0485289358
1105.65430,0.0476313420
1104.36865,0.0466724113
1103.08301,0.0457206890
1101.79736,0.0448781848
1100.51172,0.0442178920
1099.22607,0.0437181108
1097.94043,0.0432922617
1096.65479,0.0428898521
1095.36914,0.0425352640
1094.08350,0.0422779657
1092.79785,0.0421582572
1091.51221,0.0422161371
1090.22656,0.0424659215
1088.94092,0.0428569689
1087.65527,0.0433160253
1086.36963,0.0438297130
1085.08398,0.0444257893
1083.79834,0.0450740196
1082.51270,0.0456661955
1081.22705,0.0461126305
1079.94141,0.0464100875
1078.65576,0.0466034152
1077.37012,0.0467174090
1076.08447,0.0467439853
1074.79883,0.0466734841
1073.51318,0.0465247184
1072.22754,0.0463450775
1070.94189,0.0461878516
1069.65625,0.0460909270
1068.37061,0.0460778587
1067.08496,0.0461702645
1065.79932,0.0463884547
1064.51367,0.0467325673
1063.22803,0.0471610650
1061.94238,0.0475954637
1060.65674,0.0479650795
1059.37109,0.0482350253
1058.08545,0.0483769923
1056.79980,0.0483358167
1055.51416,0.0480741635
1054.22852,0.0476406403
1052.94287,0.0471485406
1051.65723,0.0466895886
1050.37158,0.0462902747
1049.08594,0.0459270328
1047.80029,0.0455493443
1046.51465,0.0451127887
1045.22900,0.0446209870
1043.94336,0.0441209115
1042.65771,0.0436483510
1041.37207,0.0432092138
1040.08643,0.0428061374
1038.80078,0.0424327254
1037.51514,0.0420416929
1036.22949,0.0415809005
1034.94385,0.0410791114
1033.65820,0.0406457745
1032.37256,0.0403582007
1031.08691,0.0401783064
1029.80127,0.0400035754
1028.51563,0.0397815816
1027.22998,0.0395548008
1025.94434,0.0393903218
1024.65869,0.0392907932
1023.37305,0.0391929001
1022.08740,0.0390532762
1020.80176,0.0389098823
1019.51611,0.0388417952
1018.23047,0.0388867520
1016.94482,0.0390135720
1015.65918,0.0391671732
1014.37354,0.0393108577
1013.08789,0.0394241400
1011.80225,0.0394914933
1010.51660,0.0395170078
1009.23096,0.0395396054
1007.94531,0.0396056473
1006.65967,0.0397198573
1005.37402,0.0398384109
1004.08838,0.0399113633
1002.80273,0.0399208702
1001.51709,0.0398804918
1000.23145,0.0398190878
998.94580,0.0397720523
997.66016,0.0397664905
996.37451,0.0397958234
995.08887,0.0398161672
993.80322,0.0397822931
992.51758,0.0396838039
991.23193,0.0395436883
989.94629,0.0393951423
988.66064,0.0392767638
987.37500,0.0392323621
986.08936,0.0392780118
984.80371,0.0393604226
983.51807,0.0393763483
982.23242,0.0392576940
980.94678,0.0390263982
979.66113,0.0387610681
978.37549,0.0385294482
977.08984,0.0383573547
975.80420,0.0382416025
974.51855,0.0381695256
973.23291,0.0381355509
971.94727,0.0381451622
970.66162,0.0381924473
969.37598,0.0382345915
968.09033,0.0382181704
966.80469,0.0381440036
965.51904,0.0380793735
964.23340,0.0380845442
962.94775,0.0381407514
961.66211,0.0381635055
960.37646,0.0380708091
959.09082,0.0378392711
957.80518,0.0375259221
956.51953,0.0372487232
955.23389,0.0371155664
953.94824,0.0371481627
952.66260,0.0372865796
951.37695,0.0374622010
950.09131,0.0376448371
948.80566,0.0378287137
947.52002,0.0380075760
946.23438,0.0381637029
944.94873,0.0382605158
943.66309,0.0382508785
942.37744,0.0381184854
941.09180,0.0379013233
939.80615,0.0376548581
938.52051,0.0373938903
937.23486,0.0370771699
935.94922,0.0366487019
934.66357,0.0361095630
933.37793,0.0355606377
932.09229,0.0351356305
930.80664,0.0348546281
929.52100,0.0345755182
928.23535,0.0341404676
926.94971,0.0335530564
925.66406,0.0329665169
924.37842,0.0325061269
923.09277,0.0321414582
921.80713,0.0317266919
920.52148,0.0311498735
919.23584,0.0304500218
917.95020,0.0298034959
916.66455,0.0293800700
915.37891,0.0291952789
914.09326,0.0291134510
912.80762,0.0289979540
911.52197,0.0288397465
910.23633,0.0287337005
908.95068,0.0287603345
907.66504,0.0289190076
906.37939,0.0291642752
905.09375,0.0294602104
903.80811,0.0297788493
902.52246,0.0300699901
901.23682,0.0302708279
899.95117,0.0303536020
