3999.64014,0.0088777365
3998.35449,0.0087428540
3997.06885,0.0087947315
3995.78320,0.0090140877
3994.49756,0.0091601331
3993.21191,0.0090608699
3991.92627,0.0088149663
3990.64063,0.0086395154
3989.35498,0.0086521897
3988.06934,0.0088194301
3986.78369,0.0090080891
3985.49805,0.0090804826
3984.21240,0.0090257702
3982.92676,0.0089704301
3981.64111,0.0089915181
3980.35547,0.0089992881
3979.06982,0.0089100758
3977.78418,0.0088185314
3976.49854,0.0088783968
3975.21289,0.0091019990
3973.92725,0.0093865776
3972.64160,0.0096530262
3971.35596,0.0098628076
3970.07031,0.0099811126
3968.78467,0.0100060645
3967.49902,0.0099563729
3966.21338,0.0097958697
3964.92773,0.0094731087
3963.64209,0.0090605523
3962.35645,0.0087409522
3961.07080,0.0086187338
3959.78516,0.0086376658
3958.49951,0.0087185297
3957.21387,0.0088917660
3955.92822,0.0092212604
3954.64258,0.0096690394
3953.35693,0.0100726103
3952.07129,0.0102529088
3950.78564,0.0101585379
3949.50000,0.0099188183
3948.21436,0.0097080031
3946.92871,0.0095249154
3945.64307,0.0092483638
3944.35742,0.0089165494
3943.07178,0.0087821567
3941.78613,0.0089979414
3940.50049,0.0093541229
3939.21484,0.0095029008
3937.92920,0.0093464786
3936.64355,0.0090507995
3935.35791,0.0088182949
3934.07227,0.0087558497
3932.78662,0.0088394284
3931.50098,0.0089285728
3930.21533,0.0088921357
3928.92969,0.0087845614
3927.64404,0.0088099996
3926.35840,0.0091118328
3925.07275,0.0096617611
3923.78711,0.0102415923
3922.50146,0.0105471015
3921.21582,0.0104556885
3919.93018,0.0101643931
3918.64453,0.0099891378
3917.35889,0.0100627812
3916.07324,0.0102383317
3914.78760,0.0103147216
3913.50195,0.0102444803
3912.21631,0.0100672599
3910.93066,0.0098324353
3909.64502,0.0096605960
3908.35938,0.0097423652
3907.07373,0.0101807434
3905.78809,0.0108520826
3904.50244,0.0114483628
3903.21680,0.0117235258
3901.93115,0.0118020931
3900.64551,0.0119863553
3899.35986,0.0121948449
3898.07422,0.0120479111
3896.78857,0.0114767486
3895.50293,0.0108099114
3894.21729,0.0103542469
3892.93164,0.0101947896
3891.64600,0.0102262730
3890.36035,0.0102282343
3889.07471,0.0100932503
3887.78906,0.0100198919
3886.50342,0.0103006195
3885.21777,0.0109591093
3883.93213,0.0116232503
3882.64648,0.0119426372
3881.36084,0.0119489450
3880.07520,0.0117018251
3878.78955,0.0111286473
3877.50391,0.0104377633
3876.21826,0.0101071596
3874.93262,0.0103922915
3873.64697,0.0111294175
3872.36133,0.0119345486
3871.07568,0.0125599494
3869.79004,0.0129013052
3868.50439,0.0127929728
3867.21875,0.0122763989
3865.93311,0.0118106315
3864.64746,0.0118234251
3863.36182,0.0122418907
3862.07617,0.0124617182
3860.79053,0.0120353485
3859.50488,0.0111882742
3858.21924,0.0104165776
3856.93359,0.0100412434
3855.64795,0.0102100270
3854.36230,0.0110485302
3853.07666,0.0124296984
3851.79102,0.0133193703
3850.50537,0.0128431767
3849.21973,0.0116419420
3847.93408,0.0105166016
3846.64844,0.0098132119
3845.36279,0.0096638789
3844.07715,0.0101033179
3842.79150,0.0110422103
3841.50586,0.0122098885
3840.22021,0.0132280933
3838.93457,0.0137883928
3837.64893,0.0137837967
3836.36328,0.0133617874
3835.07764,0.0127788177
3833.79199,0.0121943923
3832.50635,0.0116647575
3831.22070,0.0111831212
3829.93506,0.0106774252
3828.64941,0.0101146316
3827.36377,0.0096281208
3826.07813,0.0094264150
3824.79248,0.0095616430
3823.50684,0.0099117998
3822.22119,0.0104485024
3820.93555,0.0112942932
3819.64990,0.0123120565
3818.36426,0.0129553080
3817.07861,0.0128849866
3815.79297,0.0121365441
3814.50732,0.0109484904
3813.22168,0.0097472621
3811.93604,0.0088787656
3810.65039,0.0084364200
3809.36475,0.0084072035
3808.07910,0.0087658335
3806.79346,0.0094146961
3805.50781,0.0101400409
3804.22217,0.0107978899
3802.93652,0.0114260120
3801.65088,0.0119583104
3800.36523,0.0120081520
3799.07959,0.0113343075
3797.79395,0.0102685196
3796.50830,0.0092184050
3795.22266,0.0083656637
3793.93701,0.0077942610
3792.65137,0.0075212582
3791.36572,0.0074654780
3790.08008,0.0075270534
3788.79443,0.0077164681
3787.50879,0.0081805550
3786.22314,0.0090085110
3784.93750,0.0099939853
3783.65186,0.0107266670
3782.36621,0.0110197999
3781.08057,0.0110445470
3779.79492,0.0109632770
3778.50928,0.0107204858
3777.22363,0.0102712773
3775.93799,0.0097539593
3774.65234,0.0092907539
3773.36670,0.0089067742
3772.08105,0.0086847506
3770.79541,0.0087788561
3769.50977,0.0092049725
3768.22412,0.0097381547
3766.93848,0.0101870764
3765.65283,0.0105660381
3764.36719,0.0108519755
3763.08154,0.0109129185
3761.79590,0.0107400408
3760.51025,0.0105131539
3759.22461,0.0104395393
3757.93896,0.0106117679
3756.65332,0.0109894807
3755.36768,0.0115099996
3754.08203,0.0121859796
3752.79639,0.0130742453
3751.51074,0.0141255818
3750.22510,0.0149406595
3748.93945,0.0149910580
3747.65381,0.0144427205
3746.36816,0.0138677862
3745.08252,0.0135138128
3743.79688,0.0133156329
3742.51123,0.0131158102
3741.22559,0.0128685068
3739.93994,0.0126629472
3738.65430,0.0126417046
3737.36865,0.0129870996
3736.08301,0.0137995882
3734.79736,0.0147460606
3733.51172,0.0149976490
3732.22607,0.0142069636
3730.94043,0.0130280172
3729.65479,0.0122119645
3728.36914,0.0120511837
3727.08350,0.0124904625
3725.79785,0.0132304691
3724.51221,0.0137819257
3723.22656,0.0137691526
3721.94092,0.0132592376
3720.65527,0.0126119107
3719.36963,0.0120882876
3718.08398,0.0116956830
3716.79834,0.0113102086
3715.51270,0.0108636012
3714.22705,0.0104413703
3712.94141,0.0102752522
3711.65576,0.0106042344
3710.37012,0.0113172494
3709.08447,0.0117795374
3707.79883,0.0115972478
3706.51318,0.0110687111
3705.22754,0.0106978538
3703.94189,0.0108135995
3702.65625,0.0114037944
3701.37061,0.0120300790
3700.08496,0.0121299699
3698.79932,0.0116504245
3697.51367,0.0110033127
3696.22803,0.0104833730
3694.94238,0.0101422938
3693.65674,0.0100437077
3692.37109,0.0103818187
3691.08545,0.0112751918
3689.79980,0.0123589551
3688.51416,0.0126640927
3687.22852,0.0116676018
3685.94287,0.0101570534
3684.65723,0.0090148551
3683.37158,0.0084487200
3682.08594,0.0083531821
3680.80029,0.0086034723
3679.51465,0.0090795308
3678.22900,0.0096629523
3676.94336,0.0102870222
3675.65771,0.0108935144
3674.37207,0.0112939216
3673.08643,0.0113868397
3671.80078,0.0114083122
3670.51514,0.0115113286
3669.22949,0.0114206439
3667.94385,0.0107224490
3666.65820,0.0095706927
3665.37256,0.0085030170
3664.08691,0.0078354543
3662.80127,0.0076149530
3661.51563,0.0077268770
3660.22998,0.0080007473
3658.94434,0.0083946940
3657.65869,0.0090826759
3656.37305,0.0102185076
3655.08740,0.0115638031
3653.80176,0.0126770455
3652.51611,0.0136162611
3651.23047,0.0149611821
3649.94482,0.0171922706
3648.65918,0.0197862126
3647.37354,0.0210026912
3646.08789,0.0203927495
3644.80225,0.0192746241
3643.51660,0.0183933135
3642.23096,0.0177468453
3640.94531,0.0172504745
3639.65967,0.0170036573
3638.37402,0.0171752777
3637.08838,0.0177704394
3635.80273,0.0186558366
3634.51709,0.0198068582
3633.23145,0.0213408563
3631.94580,0.0232869647
3630.66016,0.0254957639
3629.37451,0.0277166571
3628.08887,0.0294988509
3626.80322,0.0304122642
3625.51758,0.0307649765
3624.23193,0.0310908053
3622.94629,0.0314239264
3621.66064,0.0315258987
3620.37500,0.0313275382
3619.08936,0.0311544370
3617.80371,0.0314460211
3616.51807,0.0321745202
3615.23242,0.0329309925
3613.94678,0.0334507711
3612.66113,0.0337152295
3611.37549,0.0339133926
3610.08984,0.0343554989
3608.80420,0.0351824202
3607.51855,0.0362182446
3606.23291,0.0372268111
3604.94727,0.0382842943
3603.66162,0.0396572053
3602.37598,0.0414240249
3601.09033,0.0433334410
3599.80469,0.0448743366
3598.51904,0.0455733202
3597.23340,0.0453039259
3595.94775,0.0443150848
3594.66211,0.0431391373
3593.37646,0.0424630977
3592.09082,0.0426314846
3590.80518,0.0432878509
3589.51953,0.0438128226
3588.23389,0.0439124480
3586.94824,0.0437046550
3585.66260,0.0433315001
3584.37695,0.0427320413
3583.09131,0.0420257226
3581.80566,0.0415693633
3580.52002,0.0414987206
3579.23438,0.0415527001
3577.94873,0.0414880142
3576.66309,0.0414410271
3575.37744,0.0416206382
3574.09180,0.0419173464
3572.80615,0.0421932638
3571.52051,0.0427173637
3570.23486,0.0439178646
3568.94922,0.0457669646
3567.66357,0.0474588051
3566.37793,0.0477346778
3565.09229,0.0462037772
3563.80664,0.0440017320
3562.52100,0.0422018208
3561.23535,0.0409822911
3559.94971,0.0402845778
3558.66406,0.0401656181
3557.37842,0.0404731482
3556.09277,0.0406316444
3554.80713,0.0401305519
3553.52148,0.0391763225
3552.23584,0.0385851227
3550.95020,0.0387635343
3549.66455,0.0390924774
3548.37891,0.0389164500
3547.09326,0.0386928953
3545.80762,0.0394684747
3544.52197,0.0411557741
3543.23633,0.0421139896
3541.95068,0.0412394516
3540.66504,0.0393617526
3539.37939,0.0379806459
3538.09375,0.0375218876
3536.80811,0.0371633321
3535.52246,0.0361037105
3534.23682,0.0346642733
3532.95117,0.0337761901
3531.66553,0.0336589478
3530.37988,0.0335780568
3529.09424,0.0328586996
3527.80859,0.0317638107
3526.52295,0.0311932582
3525.23730,0.0316532068
3523.95166,0.0327666588
3522.66602,0.0336336307
3521.38037,0.0334425494
3520.09473,0.0320088267
3518.80908,0.0298377667
3517.52344,0.0275775362
3516.23779,0.0254675187
3514.95215,0.0233806260
3513.66650,0.0213127676
3512.38086,0.0195937082
3511.09521,0.0185143985
3509.80957,0.0178366471
3508.52393,0.0168291740
3507.23828,0.0150271272
3505.95264,0.0128329117
3504.66699,0.0111491503
3503.38135,0.0104799001
3502.09570,0.0105186701
3500.81006,0.0105491960
3499.52441,0.0102768168
3498.23877,0.0100670205
3496.95313,0.0104962615
3495.66748,0.0117726745
3494.38184,0.0133493207
3493.09619,0.0141907558
3491.81055,0.0136899091
3490.52490,0.0123215113
3489.23926,0.0112327142
3487.95361,0.0110094715
3486.66797,0.0109391194
3485.38232,0.0097399289
3484.09668,0.0069870800
3482.81104,0.0034383666
3481.52539,0.0001322716
3480.23975,-0.0022668100
3478.95410,-0.0031333489
3477.66846,-0.0017911311
3476.38281,0.0014727656
3475.09717,0.0046220897
3473.81152,0.0051256521
3472.52588,0.0023098795
3471.24023,-0.0020341114
3469.95459,-0.0054170392
3468.66895,-0.0065854774
3467.38330,-0.0059461189
3466.09766,-0.0047335550
3464.81201,-0.0040935138
3463.52637,-0.0046366029
3462.24072,-0.0065576863
3460.95508,-0.0096334582
3459.66943,-0.0130285267
3458.38379,-0.0156243853
3457.09814,-0.0169746280
3455.81250,-0.0177080762
3454.52686,-0.0186619312
3453.24121,-0.0200881977
3451.95557,-0.0221354291
3450.66992,-0.0252290070
3449.38428,-0.0289912689
3448.09863,-0.0315703675
3446.81299,-0.0315074399
3445.52734,-0.0300492123
3444.24170,-0.0300101768
3442.95605,-0.0321076848
3441.67041,-0.0341986567
3440.38477,-0.0342209525
3439.09912,-0.0327101722
3437.81348,-0.0322210491
3436.52783,-0.0346320681
3435.24219,-0.0390290506
3433.95654,-0.0422141962
3432.67090,-0.0415336825
3431.38525,-0.0373446159
3430.09961,-0.0321524963
3428.81396,-0.0283210780
3427.52832,-0.0272859912
3426.24268,-0.0297011361
3424.95703,-0.0347134247
3423.67139,-0.0395922922
3422.38574,-0.0413821042
3421.10010,-0.0391110070
3419.81445,-0.0344282277
3418.52881,-0.0305239446
3417.24316,-0.0300811920
3415.95752,-0.0342628211
3414.67188,-0.0418682620
3413.38623,-0.0494683087
3412.10059,-0.0533067249
3410.81494,-0.0521966442
3409.52930,-0.0488580652
3408.24365,-0.0475375988
3406.95801,-0.0495010577
3405.67236,-0.0519809537
3404.38672,-0.0524252132
3403.10107,-0.0523158610
3401.81543,-0.0548609123
3400.52979,-0.0602635853
3399.24414,-0.0659274608
3397.95850,-0.0702056959
3396.67285,-0.0727897212
3395.38721,-0.0723610967
3394.10156,-0.0674701780
3392.81592,-0.0604441203
3391.53027,-0.0567349717
3390.24463,-0.0597398914
3388.95898,-0.0679249614
3387.67334,-0.0776348487
3386.38770,-0.0871338993
3385.10205,-0.0960299969
3383.81641,-0.1018256024
3382.53076,-0.1006212384
3381.24512,-0.0924177840
3379.95947,-0.0827935115
3378.67383,-0.0780773312
3377.38818,-0.0796606615
3376.10254,-0.0836284384
3374.81689,-0.0853545144
3373.53125,-0.0832449198
3372.24561,-0.0791415647
3370.95996,-0.0769254491
3369.67432,-0.0802507252
3368.38867,-0.0902421698
3367.10303,-0.1039130315
3365.81738,-0.1150374934
3364.53174,-0.1180945709
3363.24609,-0.1125067249
3361.96045,-0.1032601744
3360.67480,-0.0969233140
3359.38916,-0.0972157344
3358.10352,-0.1036691219
3356.81787,-0.1128874943
3355.53223,-0.1198798493
3354.24658,-0.1209315360
3352.96094,-0.1161297783
3351.67529,-0.1092422605
3350.38965,-0.1041661277
3349.10400,-0.1022679061
3347.81836,-0.1025846675
3346.53271,-0.1036781371
3345.24707,-0.1047998592
3343.96143,-0.1060697213
3342.67578,-0.1080231518
3341.39014,-0.1107452214
3340.10449,-0.1130941659
3338.81885,-0.1134635881
3337.53320,-0.1117043644
3336.24756,-0.1094231904
3334.96191,-0.1083516479
3333.67627,-0.1089860275
3332.39063,-0.1108041629
3331.10498,-0.1131589711
3329.81934,-0.1154385209
3328.53369,-0.1173611432
3327.24805,-0.1191060916
3325.96240,-0.1202711463
3324.67676,-0.1188355312
3323.39111,-0.1137260422
3322.10547,-0.1078620404
3320.81982,-0.1064744219
3319.53418,-0.1112708375
3318.24854,-0.1186831146
3316.96289,-0.1242573485
3315.67725,-0.1266133934
3314.39160,-0.1265938282
3313.10596,-0.1249018312
3311.82031,-0.1219827235
3310.53467,-0.1191058233
3309.24902,-0.1183420271
3307.96338,-0.1210396811
3306.67773,-0.1258831173
3305.39209,-0.1292062998
3304.10645,-0.1290575862
3302.82080,-0.1282447577
3301.53516,-0.1313759983
3300.24951,-0.1389772445
3298.96387,-0.1468341798
3297.67822,-0.1512089372
3296.39258,-0.1514201909
3295.10693,-0.1482492685
3293.82129,-0.1428558677
3292.53564,-0.1382082105
3291.25000,-0.1374458969
3289.96436,-0.1402774304
3288.67871,-0.1435866207
3287.39307,-0.1454343945
3286.10742,-0.1469109654
3284.82178,-0.1493670344
3283.53613,-0.1515877992
3282.25049,-0.1507844180
3280.96484,-0.1458993256
3279.67920,-0.1392816603
3278.39355,-0.1352263689
3277.10791,-0.1366516501
3275.82227,-0.1423570514
3274.53662,-0.1476106495
3273.25098,-0.1484173387
3271.96533,-0.1454658359
3270.67969,-0.1428376734
3269.39404,-0.1425402313
3268.10840,-0.1423403472
3266.82275,-0.1400230825
3265.53711,-0.1370118707
3264.25146,-0.1359141022
3262.96582,-0.1367807984
3261.68018,-0.1383852810
3260.39453,-0.1405348927
3259.10889,-0.1431780905
3257.82324,-0.1451908052
3256.53760,-0.1463026851
3255.25195,-0.1482014805
3253.96631,-0.1519020200
3252.68066,-0.1555732787
3251.39502,-0.1564954817
3250.10938,-0.1536862701
3248.82373,-0.1484090686
3247.53809,-0.1440614164
3246.25244,-0.1448489428
3244.96680,-0.1520977616
3243.68115,-0.1621319652
3242.39551,-0.1695772111
3241.10986,-0.1718674302
3239.82422,-0.1691779643
3238.53857,-0.1620821506
3237.25293,-0.1520500332
3235.96729,-0.1429679394
3234.68164,-0.1387277693
3233.39600,-0.1401193142
3232.11035,-0.1453967988
3230.82471,-0.1524795294
3229.53906,-0.1592384726
3228.25342,-0.1631475389
3226.96777,-0.1626079530
3225.68213,-0.1586133689
3224.39648,-0.1538928896
3223.11084,-0.1500514597
3221.82520,-0.1465622336
3220.53955,-0.1429330260
3219.25391,-0.1403488517
3217.96826,-0.1401044726
3216.68262,-0.1414701343
3215.39697,-0.1427002996
3214.11133,-0.1433331668
3212.82568,-0.1439599246
3211.54004,-0.1444111764
3210.25439,-0.1436434090
3208.96875,-0.1415341198
3207.68311,-0.1395458132
3206.39746,-0.1393850148
3205.11182,-0.1414321363
3203.82617,-0.1442679912
3202.54053,-0.1459550112
3201.25488,-0.1458479166
3199.96924,-0.1448368430
3198.68359,-0.1438296139
3197.39795,-0.1426719129
3196.11230,-0.1410046071
3194.82666,-0.1393101215
3193.54102,-0.1383192539
3192.25537,-0.1378645748
3190.96973,-0.1369697601
3189.68408,-0.1349360794
3188.39844,-0.1319432259
3187.11279,-0.1285656542
3185.82715,-0.1252878457
3184.54150,-0.1224945560
3183.25586,-0.1205065995
3181.97021,-0.1191331670
3180.68457,-0.1176193058
3179.39893,-0.1155011132
3178.11328,-0.1134660617
3176.82764,-0.1128593162
3175.54199,-0.1140690073
3174.25635,-0.1157740355
3172.97070,-0.1159880087
3171.68506,-0.1138685867
3170.39941,-0.1102320477
3169.11377,-0.1063880771
3167.82813,-0.1027800739
3166.54248,-0.0991313830
3165.25684,-0.0954683274
3163.97119,-0.0922894999
3162.68555,-0.0899721235
3161.39990,-0.0886408389
3160.11426,-0.0883695707
3158.82861,-0.0889140517
3157.54297,-0.0895094052
3156.25732,-0.0894899070
3154.97168,-0.0888769627
3153.68604,-0.0879949927
3152.40039,-0.0868616924
3151.11475,-0.0852288902
3149.82910,-0.0829127878
3148.54346,-0.0799506903
3147.25781,-0.0766621232
3145.97217,-0.0735403448
3144.68652,-0.0708570555
3143.40088,-0.0685130358
3142.11523,-0.0664536953
3140.82959,-0.0649139956
3139.54395,-0.0640193895
3138.25830,-0.0634607151
3136.97266,-0.0627109110
3135.68701,-0.0613359548
3134.40137,-0.0590472221
3133.11572,-0.0559164695
3131.83008,-0.0526447594
3130.54443,-0.0501755327
3129.25879,-0.0488797165
3127.97314,-0.0483515486
3126.68750,-0.0479512326
3125.40186,-0.0472119041
3124.11621,-0.0457836054
3122.83057,-0.0434055775
3121.54492,-0.0402347557
3120.25928,-0.0369624086
3118.97363,-0.0343882963
3117.68799,-0.0328563079
3116.40234,-0.0320938863
3115.11670,-0.0315017104
3113.83105,-0.0306059774
3112.54541,-0.0293132514
3111.25977,-0.0277324282
3109.97412,-0.0259195883
3108.68848,-0.0239785053
3107.40283,-0.0222688373
3106.11719,-0.0210868083
3104.83154,-0.0200732220
3103.54590,-0.0184269361
3102.26025,-0.0159253366
3100.97461,-0.0133648161
3099.68896,-0.0117162876
3098.40332,-0.0111099780
3097.11768,-0.0108482921
3095.83203,-0.0101179788
3094.54639,-0.0085489461
3093.26074,-0.0063835504
3091.97510,-0.0042412439
3090.68945,-0.0025132310
3089.40381,-0.0009871519
3088.11816,0.0007090775
3086.83252,0.0024147693
3085.54688,0.0035960153
3084.26123,0.0042200731
3082.97559,0.0049909609
3081.68994,0.0065255538
3080.40430,0.0086449012
3079.11865,0.0107448166
3077.83301,0.0125920037
3076.54736,0.0144229438
3075.26172,0.0163914021
3073.97607,0.0182546880
3072.69043,0.0196685363
3071.40479,0.0205726363
3070.11914,0.0212019105
3068.83350,0.0218285583
3067.54785,0.0226020329
3066.26221,0.0236060824
3064.97656,0.0249218419
3063.69092,0.0265138298
3062.40527,0.0281189121
3061.11963,0.0294221994
3059.83398,0.0303939655
3058.54834,0.0313435644
3057.26270,0.0325723328
3055.97705,0.0340587050
3054.69141,0.0355422646
3053.40576,0.0368258692
3052.12012,0.0379263274
3050.83447,0.0389889069
3049.54883,0.0401368849
3048.26318,0.0413624607
3046.97754,0.0425492823
3045.69189,0.0436474942
3044.40625,0.0447885506
3043.12061,0.0461392850
3041.83496,0.0476638675
3040.54932,0.0491297841
3039.26367,0.0503333695
3037.97803,0.0512644164
3036.69238,0.0520701520
3035.40674,0.0529252477
3034.12109,0.0539107546
3032.83545,0.0549670123
3031.54980,0.0559771992
3030.26416,0.0569039397
3028.97852,0.0577939004
3027.69287,0.0586701222
3026.40723,0.0595291555
3025.12158,0.0604326651
3023.83594,0.0614681169
3022.55029,0.0626028180
3021.26465,0.0637091473
3019.97900,0.0647631884
3018.69336,0.0658581331
3017.40771,0.0669736639
3016.12207,0.0679061338
3014.83643,0.0685397461
3013.55078,0.0690460950
3012.26514,0.0696848407
3010.97949,0.0704920590
3009.69385,0.0712985396
3008.40820,0.0720040128
3007.12256,0.0727111176
3005.83691,0.0735911950
3004.55127,0.0746914968
3003.26563,0.0758913234
3001.97998,0.0770277455
3000.69434,0.0780379027
2999.40869,0.0789506733
2998.12305,0.0797430202
2996.83740,0.0802940205
2995.55176,0.0805381909
2994.26611,0.0806218684
2992.98047,0.0808401406
2991.69482,0.0814203322
2990.40918,0.0823703855
2989.12354,0.0834841281
2987.83789,0.0844717249
2986.55225,0.0851579607
2985.26660,0.0856177881
2983.98096,0.0860842913
2982.69531,0.0866944119
2981.40967,0.0873647034
2980.12402,0.0879317746
2978.83838,0.0883710384
2977.55273,0.0888379440
2976.26709,0.0895087942
2974.98145,0.0903918073
2973.69580,0.0912842378
2972.41016,0.0919196904
2971.12451,0.0921802446
2969.83887,0.0921759903
2968.55322,0.0921133533
2967.26758,0.0921139345
2965.98193,0.0921822637
2964.69629,0.0923103392
2963.41064,0.0925376937
2962.12500,0.0928815380
2960.83936,0.0932718068
2959.55371,0.0936151519
2958.26807,0.0939146727
2956.98242,0.0942672715
2955.69678,0.0947457775
2954.41113,0.0953325406
2953.12549,0.0959666818
2951.83984,0.0965859070
2950.55420,0.0971143991
2949.26855,0.0974918902
2947.98291,0.0977545083
2946.69727,0.0980278701
2945.41162,0.0983924642
2944.12598,0.0987883434
2942.84033,0.0990738943
2941.55469,0.0991484895
2940.26904,0.0990167558
2938.98340,0.0987654850
2937.69775,0.0984891281
2936.41211,0.0982177630
2935.12646,0.0979162231
2933.84082,0.0975479484
2932.55518,0.0971109271
2931.26953,0.0966207609
2929.98389,0.0961004943
2928.69824,0.0955926925
2927.41260,0.0951458439
2926.12695,0.0948075056
2924.84131,0.0946685448
2923.55566,0.0948505551
2922.27002,0.0953687131
2920.98438,0.0960457250
2919.69873,0.0966520905
2918.41309,0.0971080884
2917.12744,0.0974813327
2915.84180,0.0978400484
2914.55615,0.0982045755
2913.27051,0.0986031368
2911.98486,0.0990689173
2910.69922,0.0995773524
2909.41357,0.1000443622
2908.12793,0.1003897116
2906.84229,0.1005797237
2905.55664,0.1006312594
2904.27100,0.1006013304
2902.98535,0.1005505845
2901.69971,0.1004985720
2900.41406,0.1004343778
2899.12842,0.1003730148
2897.84277,0.1003664657
2896.55713,0.1004485637
2895.27148,0.1005941108
2893.98584,0.1007424966
2892.70020,0.1008306369
2891.41455,0.1008088514
2890.12891,0.1006761864
2888.84326,0.1005093381
2887.55762,0.1004104987
2886.27197,0.1004014537
2884.98633,0.1004054472
2883.70068,0.1003569663
2882.41504,0.1002876982
2881.12939,0.1002691165
2879.84375,0.1002943218
2878.55811,0.1002696976
2877.27246,0.1001201123
2875.98682,0.0998725817
2874.70117,0.0996220559
2873.41553,0.0994334444
2872.12988,0.0992903560
2870.84424,0.0991293117
2869.55859,0.0989063531
2868.27295,0.0986274704
2866.98730,0.0983229950
2865.70166,0.0980051309
2864.41602,0.0976679921
2863.13037,0.0973350331
2861.84473,0.0970786512
2860.55908,0.0969499275
2859.27344,0.0968930200
2857.98779,0.0967773274
2856.70215,0.0965274870
2855.41650,0.0961877704
2854.13086,0.0958646983
2852.84521,0.0956652835
2851.55957,0.0956950337
2850.27393,0.0960252509
2848.98828,0.0965948328
2847.70264,0.0971899554
2846.41699,0.0976011008
2845.13135,0.0977925137
2843.84570,0.0978801847
2842.56006,0.0979629308
2841.27441,0.0980262458
2839.98877,0.0980240405
2838.70313,0.0979923159
2837.41748,0.0980180725
2836.13184,0.0981034636
2834.84619,0.0981343910
2833.56055,0.0980134383
2832.27490,0.0977850556
2830.98926,0.0975908861
2829.70361,0.0975233167
2828.41797,0.0975442231
2827.13232,0.0975394174
2825.84668,0.0974392146
2824.56104,0.0972787142
2823.27539,0.0971264690
2821.98975,0.0969672799
2820.70410,0.0967016369
2819.41846,0.0962806642
2818.13281,0.0957957208
2816.84717,0.0953978896
2815.56152,0.0951568633
2814.27588,0.0950204581
2812.99023,0.0948927104
2811.70459,0.0947242752
2810.41895,0.0945277289
2809.13330,0.0943212733
2807.84766,0.0940805897
2806.56201,0.0937663019
2805.27637,0.0933893621
2803.99072,0.0930180401
2802.70508,0.0927228481
2801.41943,0.0925328508
2800.13379,0.0924322456
2798.84814,0.0923614651
2797.56250,0.0922257602
2796.27686,0.0919497311
2794.99121,0.0915514156
2793.70557,0.0911505297
2792.41992,0.0908755884
2791.13428,0.0907544047
2789.84863,0.0907060802
2788.56299,0.0906446427
2787.27734,0.0905624926
2785.99170,0.0904833823
2784.70605,0.0903743953
2783.42041,0.0901623815
2782.13477,0.0898280367
2780.84912,0.0894212574
2779.56348,0.0889898837
2778.27783,0.0885638595
2776.99219,0.0882071033
2775.70654,0.0880074129
2774.42090,0.0879774913
2773.13525,0.0880248770
2771.84961,0.0880513489
2770.56396,0.0880398750
2769.27832,0.0880218297
2767.99268,0.0880046487
2766.70703,0.0879710168
2765.42139,0.0879169106
2764.13574,0.0878539085
2762.85010,0.0877927914
2761.56445,0.0877480507
2760.27881,0.0877438709
2758.99316,0.0877946168
2757.70752,0.0878816769
2756.42188,0.0879508927
2755.13623,0.0879303813
2753.85059,0.0877898037
2752.56494,0.0876088962
2751.27930,0.0875391588
2749.99365,0.0876450613
2748.70801,0.0878123417
2747.42236,0.0878739432
2746.13672,0.0878010243
2744.85107,0.0877067447
2743.56543,0.0876966938
2742.27979,0.0877859443
2740.99414,0.0879446790
2739.70850,0.0881385803
2738.42285,0.0883115605
2737.13721,0.0883907825
2735.85156,0.0883528069
2734.56592,0.0882667750
2733.28027,0.0882455185
2731.99463,0.0883407146
2730.70898,0.0884854048
2729.42334,0.0885469764
2728.13770,0.0884464309
2726.85205,0.0882268399
2725.56641,0.0880082026
2724.28076,0.0878857598
2722.99512,0.0878759101
2721.70947,0.0879269019
2720.42383,0.0879605040
2719.13818,0.0879211649
2717.85254,0.0878135413
2716.56689,0.0876977444
2715.28125,0.0876304209
2713.99561,0.0876200795
2712.70996,0.0876446143
2711.42432,0.0876939744
2710.13867,0.0877617672
2708.85303,0.0878178850
2707.56738,0.0878251418
2706.28174,0.0877866745
2704.99609,0.0877418444
2703.71045,0.0877202675
2702.42480,0.0877258778
2701.13916,0.0877592042
2699.85352,0.0878214911
2698.56787,0.0878975242
2697.28223,0.0879590735
2695.99658,0.0879954621
2694.71094,0.0880260840
2693.42529,0.0880866051
2692.13965,0.0882012397
2690.85400,0.0883601308
2689.56836,0.0885255560
2688.28271,0.0886760801
2686.99707,0.0888337865
2685.71143,0.0890220702
2684.42578,0.0892129242
2683.14014,0.0893605873
2681.85449,0.0894862115
2680.56885,0.0896785036
2679.28320,0.0899976417
2677.99756,0.0904091075
2676.71191,0.0908245668
2675.42627,0.0911808610
2674.14063,0.0914695710
2672.85498,0.0917080119
2671.56934,0.0919006243
2670.28369,0.0920336768
2668.99805,0.0921148285
2667.71240,0.0922108740
2666.42676,0.0924067870
2665.14111,0.0927137807
2663.85547,0.0930514485
2662.56982,0.0933423936
2661.28418,0.0935922191
2659.99854,0.0938450024
2658.71289,0.0941026434
2657.42725,0.0943358392
2656.14160,0.0945479348
2654.85596,0.0947737321
2653.57031,0.0950223729
2652.28467,0.0952639356
2650.99902,0.0954726711
2649.71338,0.0956465453
2648.42773,0.0957939476
2647.14209,0.0959367827
2645.85645,0.0961191356
2644.57080,0.0963752717
2643.28516,0.0966814980
2641.99951,0.0969691277
2640.71387,0.0971885622
2639.42822,0.0973396003
2638.14258,0.0974466205
2636.85693,0.0975345969
2635.57129,0.0976342857
2634.28564,0.0977804139
2633.00000,0.0979813263
2631.71436,0.0982066914
2630.42871,0.0984202623
2629.14307,0.0986174345
2627.85742,0.0988115072
2626.57178,0.0989910960
2625.28613,0.0991131067
2624.00049,0.0991504192
2622.71484,0.0991361290
2621.42920,0.0991487503
2620.14355,0.0992431566
2618.85791,0.0993860215
2617.57227,0.0994690806
2616.28662,0.0994121507
2615.00098,0.0992602333
2613.71533,0.0991521329
2612.42969,0.0991813168
2611.14404,0.0993109569
2609.85840,0.0994340181
2608.57275,0.0994847044
2607.28711,0.0994770229
2606.00146,0.0994672552
2604.71582,0.0994969085
2603.43018,0.0995569676
2602.14453,0.0996005535
2600.85889,0.0996021256
2599.57324,0.0995836034
2598.28760,0.0995600298
2597.00195,0.0994926468
2595.71631,0.0993392915
2594.43066,0.0991298333
2593.14502,0.0989406109
2591.85938,0.0988115370
2590.57373,0.0987304673
2589.28809,0.0986776948
2588.00244,0.0986364335
2586.71680,0.0985716283
2585.43115,0.0984556153
2584.14551,0.0983137712
2582.85986,0.0982109681
2581.57422,0.0981802046
2580.28857,0.0981879681
2579.00293,0.0981717706
2577.71729,0.0981004834
2576.43164,0.0979988649
2575.14600,0.0979178846
2573.86035,0.0978836045
2572.57471,0.0978772417
2571.28906,0.0978627801
2570.00342,0.0978185758
2568.71777,0.0977373943
2567.43213,0.0976244584
2566.14648,0.0975131840
2564.86084,0.0974627957
2563.57520,0.0975098088
2562.28955,0.0976303965
2561.00391,0.0977596417
2559.71826,0.0978284031
2558.43262,0.0977832153
2557.14697,0.0976127014
2555.86133,0.0973747820
2554.57568,0.0971600041
2553.29004,0.0969967991
2552.00439,0.0968213901
2550.71875,0.0965640768
2549.43311,0.0962384641
2548.14746,0.0959222168
2546.86182,0.0956748649
2545.57617,0.0955002531
2544.29053,0.0953650922
2543.00488,0.0952263176
2541.71924,0.0950577110
2540.43359,0.0948653966
2539.14795,0.0946703404
2537.86230,0.0944649875
2536.57666,0.0942086801
2535.29102,0.0938837975
2534.00537,0.0935305730
2532.71973,0.0932022408
2531.43408,0.0928984061
2530.14844,0.0925718695
2528.86279,0.0921899825
2527.57715,0.0917607024
2526.29150,0.0913019702
2525.00586,0.0908212066
2523.72021,0.0903342739
2522.43457,0.0898744538
2521.14893,0.0894611105
2519.86328,0.0890743434
2518.57764,0.0886863768
2517.29199,0.0883121639
2516.00635,0.0880009532
2514.72070,0.0877689943
2513.43506,0.0875615180
2512.14941,0.0872974768
2510.86377,0.0869393572
2509.57813,0.0865107924
2508.29248,0.0860620365
2507.00684,0.0856316239
2505.72119,0.0852236003
2504.43555,0.0848098397
2503.14990,0.0843659937
2501.86426,0.0839091465
2500.57861,0.0834857225
2499.29297,0.0831135809
2498.00732,0.0827624053
2496.72168,0.0823966712
2495.43604,0.0820169002
2494.15039,0.0816406682
2492.86475,0.0812668651
2491.57910,0.0808801875
2490.29346,0.0804796517
2489.00781,0.0800748989
2487.72217,0.0796565935
2486.43652,0.0792053863
2485.15088,0.0787446946
2483.86523,0.0783494040
2482.57959,0.0780630186
2481.29395,0.0778203979
2480.00830,0.0774978846
2478.72266,0.0770467818
2477.43701,0.0765324831
2476.15137,0.0760385245
2474.86572,0.0755791143
2473.58008,0.0751299709
2472.29443,0.0746990368
2471.00879,0.0743186772
2469.72314,0.0739870593
2468.43750,0.0736522526
2467.15186,0.0732577145
2465.86621,0.0727962032
2464.58057,0.0723272115
2463.29492,0.0719384700
2462.00928,0.0716680512
2460.72363,0.0714543834
2459.43799,0.0711825788
2458.15234,0.0707916096
2456.86670,0.0703240782
2455.58105,0.0698651597
2454.29541,0.0694489181
2453.00977,0.0690459087
2451.72412,0.0686358735
2450.43848,0.0682546720
2449.15283,0.0679429322
2447.86719,0.0676668435
2446.58154,0.0673435032
2445.29590,0.0669497475
2444.01025,0.0665562302
2442.72461,0.0662421510
2441.43896,0.0660102069
2440.15332,0.0658009574
2438.86768,0.0655598193
2437.58203,0.0652728081
2436.29639,0.0649617314
2435.01074,0.0646546036
2433.72510,0.0643493980
2432.43945,0.0640158802
2431.15381,0.0636445284
2429.86816,0.0632743537
2428.58252,0.0629519522
2427.29688,0.0626792908
2426.01123,0.0624348782
2424.72559,0.0622244924
2423.43994,0.0620734133
2422.15430,0.0619630292
2420.86865,0.0618115328
2419.58301,0.0615404174
2418.29736,0.0611490533
2417.01172,0.0607073717
2415.72607,0.0602859631
2414.44043,0.0599107966
2413.15479,0.0595742278
2411.86914,0.0592634343
2410.58350,0.0589722544
2409.29785,0.0587001480
2408.01221,0.0584406741
2406.72656,0.0581732728
2405.44092,0.0578806065
2404.15527,0.0575808063
2402.86963,0.0573225059
2401.58398,0.0571326166
2400.29834,0.0569810569
2399.01270,0.0568036512
2397.72705,0.0565495566
2396.44141,0.0562085658
2395.15576,0.0558072627
2393.87012,0.0553998835
2392.58447,0.0550548360
2391.29883,0.0548249632
2390.01318,0.0547146946
2388.72754,0.0546911843
2387.44189,0.0547559485
2386.15625,0.0549935363
2384.87061,0.0555204190
2383.58496,0.0564029776
2382.29932,0.0576595217
2381.01367,0.0593093932
2379.72803,0.0613446720
2378.44238,0.0636502802
2377.15674,0.0660471395
2375.87109,0.0684656128
2374.58545,0.0710067749
2373.29980,0.0737736672
2372.01416,0.0767171532
2370.72852,0.0797229335
2369.44287,0.0827799737
2368.15723,0.0859677568
2366.87158,0.0893023610
2365.58594,0.0926321000
2364.30029,0.0956425071
2363.01465,0.0979504064
2361.72900,0.0993035659
2360.44336,0.0997527987
2359.15771,0.0994981751
2357.87207,0.0984463021
2356.58643,0.0961691961
2355.30078,0.0925538391
2354.01514,0.0881395638
2352.72949,0.0836305991
2351.44385,0.0795010775
2350.15820,0.0761331245
2348.87256,0.0739289895
2347.58691,0.0732277706
2346.30127,0.0741741806
2345.01563,0.0764666647
2343.72998,0.0791216493
2342.44434,0.0809274986
2341.15869,0.0813847408
2339.87305,0.0807996839
2338.58740,0.0797536597
2337.30176,0.0787559003
2336.01611,0.0780504495
2334.73047,0.0775824860
2333.44482,0.0771681592
2332.15918,0.0766803995
2330.87354,0.0760913938
2329.58789,0.0753976703
2328.30225,0.0745196119
2327.01660,0.0733263791
2325.73096,0.0718193501
2324.44531,0.0702394694
2323.15967,0.0688972995
2321.87402,0.0678526163
2320.58838,0.0668311939
2319.30273,0.0655263737
2318.01709,0.0639280602
2316.73145,0.0622948743
2315.44580,0.0608855002
2314.16016,0.0597774908
2312.87451,0.0588739663
2311.58887,0.0580004379
2310.30322,0.0570071489
2309.01758,0.0558351353
2307.73193,0.0545242131
2306.44629,0.0531722829
2305.16064,0.0518872105
2303.87500,0.0507455021
2302.58936,0.0497585796
2301.30371,0.0488710701
2300.01807,0.0480179004
2298.73242,0.0471865125
2297.44678,0.0464057401
2296.16113,0.0456885919
2294.87549,0.0450177081
2293.58984,0.0443856753
2292.30420,0.0438107885
2291.01855,0.0433011837
2289.73291,0.0428176261
2288.44727,0.0422917195
2287.16162,0.0416855738
2285.87598,0.0410364009
2284.59033,0.0404447056
2283.30469,0.0400129147
2282.01904,0.0397875383
2280.73340,0.0397453308
2279.44775,0.0398161076
2278.16211,0.0399194807
2276.87646,0.0399955660
2275.59082,0.0400132537
2274.30518,0.0399600938
2273.01953,0.0398407057
2271.73389,0.0396919474
2270.44824,0.0395770334
2269.16260,0.0395364575
2267.87695,0.0395416208
2266.59131,0.0395111144
2265.30566,0.0393774547
2264.02002,0.0391406901
2262.73438,0.0388662517
2261.44873,0.0386314616
2260.16309,0.0384632871
2258.87744,0.0383272134
2257.59180,0.0381748080
2256.30615,0.0379923433
2255.02051,0.0377996191
2253.73486,0.0376178250
2252.44922,0.0374595225
2251.16357,0.0373380035
2249.87793,0.0372622088
2248.59229,0.0372177325
2247.30664,0.0371692814
2246.02100,0.0370941944
2244.73535,0.0370005742
2243.44971,0.0369018689
2242.16406,0.0367876925
2240.87842,0.0366437472
2239.59277,0.0364933982
2238.30713,0.0363872387
2237.02148,0.0363366045
2235.73584,0.0362875797
2234.45020,0.0361851007
2233.16455,0.0360435732
2231.87891,0.0359258242
2230.59326,0.0358591937
2229.30762,0.0358065926
2228.02197,0.0357179977
2226.73633,0.0355879217
2225.45068,0.0354535803
2224.16504,0.0353512689
2222.87939,0.0352802053
2221.59375,0.0352028608
2220.30811,0.0350854211
2219.02246,0.0349401012
2217.73682,0.0348201580
2216.45117,0.0347640105
2215.16553,0.0347549245
2213.87988,0.0347447731
2212.59424,0.0347125269
2211.30859,0.0346874855
2210.02295,0.0347137041
2208.73730,0.0347938240
2207.45166,0.0348722748
2206.16602,0.0348833241
2204.88037,0.0348143540
2203.59473,0.0347113200
2202.30908,0.0346189961
2201.02344,0.0345275290
2199.73779,0.0343938023
2198.45215,0.0342151038
2197.16650,0.0340615325
2195.88086,0.0340101905
2194.59521,0.0340435058
2193.30957,0.0340477340
2192.02393,0.0339318663
2190.73828,0.0337192565
2189.45264,0.0335022993
2188.16699,0.0333465561
2186.88135,0.0332713127
2185.59570,0.0332871899
2184.31006,0.0333972313
2183.02441,0.0335724652
2181.73877,0.0337593742
2180.45313,0.0339049138
2179.16748,0.0339724533
2177.88184,0.0339515172
2176.59619,0.0338711925
2175.31055,0.0337863751
2174.02490,0.0337414667
2172.73926,0.0337578356
2171.45361,0.0338458903
2170.16797,0.0340004489
2168.88232,0.0341739357
2167.59668,0.0342766419
2166.31104,0.0342364460
2165.02539,0.0340764038
2163.73975,0.0339214280
2162.45410,0.0338992067
2161.16846,0.0340303481
2159.88281,0.0342319645
2158.59717,0.0344209000
2157.31152,0.0345784910
2156.02588,0.0347121917
2154.74023,0.0348039195
2153.45459,0.0348318219
2152.16895,0.0348093882
2150.88330,0.0347740240
2149.59766,0.0347518139
2148.31201,0.0347618535
2147.02637,0.0348376296
2145.74072,0.0349993855
2144.45508,0.0352101810
2143.16943,0.0353934243
2141.88379,0.0355070606
2140.59814,0.0355754159
2139.31250,0.0356474593
2138.02686,0.0357471146
2136.74121,0.0358671471
2135.45557,0.0359876640
2134.16992,0.0360912234
2132.88428,0.0361764058
2131.59863,0.0362585075
2130.31299,0.0363524184
2129.02734,0.0364615880
2127.74170,0.0365909673
2126.45605,0.0367449820
2125.17041,0.0369013362
2123.88477,0.0370165557
2122.59912,0.0370794199
2121.31348,0.0371385179
2120.02783,0.0372505933
2118.74219,0.0374193676
2117.45654,0.0376067273
2116.17090,0.0377849080
2114.88525,0.0379555598
2113.59961,0.0381301828
2112.31396,0.0383173190
2111.02832,0.0385266468
2109.74268,0.0387624279
2108.45703,0.0390034653
2107.17139,0.0392125584
2105.88574,0.0393826663
2104.60010,0.0395555981
2103.31445,0.0397704653
2102.02881,0.0400049053
2100.74316,0.0402023569
2099.45752,0.0403504744
2098.17188,0.0404892564
2096.88623,0.0406436995
2095.60059,0.0408006907
2094.31494,0.0409668423
2093.02930,0.0411933921
2091.74365,0.0415015705
2090.45801,0.0418180898
2089.17236,0.0420274325
2087.88672,0.0420922264
2086.60107,0.0420912318
2085.31543,0.0421362370
2084.02979,0.0422745161
2082.74414,0.0424758568
2081.45850,0.0426972546
2080.17285,0.0429340564
2078.88721,0.0432048403
2077.60156,0.0435037464
2076.31592,0.0437944643
2075.03027,0.0440532118
2073.74463,0.0442944504
2072.45898,0.0445416719
2071.17334,0.0447875448
2069.88770,0.0450078547
2068.60205,0.0452138633
2067.31641,0.0454560332
2066.03076,0.0457574464
2064.74512,0.0460671224
2063.45947,0.0463095680
2062.17383,0.0464749336
2060.88818,0.0466277376
2059.60254,0.0468326136
2058.31689,0.0470964611
2057.03125,0.0473727100
2055.74561,0.0476062372
2054.45996,0.0477764904
2053.17432,0.0479081608
2051.88867,0.0480370112
2050.60303,0.0481787361
2049.31738,0.0483447015
2048.03174,0.0485696904
2046.74609,0.0488803387
2045.46045,0.0492380299
2044.17480,0.0495540574
2042.88916,0.0497703925
2041.60352,0.0499093197
2040.31787,0.0500402711
2039.03223,0.0502213053
2037.74658,0.0504661947
2036.46094,0.0507404692
2035.17529,0.0509812273
2033.88965,0.0511477739
2032.60400,0.0512696616
2031.31836,0.0514269024
2030.03271,0.0516654216
2028.74707,0.0519457050
2027.46143,0.0521906354
2026.17578,0.0523692071
2024.89014,0.0525074489
2023.60449,0.0526344851
2022.31885,0.0527566224
2021.03320,0.0528883487
2019.74756,0.0530668236
2018.46191,0.0533065721
2017.17627,0.0535559282
2015.89063,0.0537280068
2014.60498,0.0537903756
2013.31934,0.0537994616
2012.03369,0.0538401008
2010.74805,0.0539457798
2009.46240,0.0540796258
2008.17676,0.0541754216
2006.89111,0.0541917533
2005.60547,0.0541400909
2004.31982,0.0540774874
2003.03418,0.0540682860
2001.74854,0.0541380011
2000.46289,0.0542622954
1999.17725,0.0543995835
1997.89160,0.0545311347
1996.60596,0.0546745323
1995.32031,0.0548649356
1994.03467,0.0551110208
1992.74902,0.0553540438
1991.46338,0.0554881208
1990.17773,0.0554592982
1988.89209,0.0553232841
1987.60645,0.0551732183
1986.32080,0.0550548024
1985.03516,0.0549749769
1983.74951,0.0549409837
1982.46387,0.0549588762
1981.17822,0.0550122000
1979.89258,0.0550742298
1978.60693,0.0551336780
1977.32129,0.0551924631
1976.03564,0.0552436151
1974.75000,0.0552701876
1973.46436,0.0552615225
1972.17871,0.0552245937
1970.89307,0.0551873520
1969.60742,0.0551871397
1968.32178,0.0552307107
1967.03613,0.0552545786
1965.75049,0.0551667213
1964.46484,0.0549616404
1963.17920,0.0547460541
1961.89355,0.0546235926
1960.60791,0.0545935668
1959.32227,0.0545817688
1958.03662,0.0545358025
1956.75098,0.0544583574
1955.46533,0.0543661378
1954.17969,0.0542646684
1952.89404,0.0541652814
1951.60840,0.0540925898
1950.32275,0.0540607795
1949.03711,0.0540569089
1947.75146,0.0540633276
1946.46582,0.0540916808
1945.18018,0.0541727878
1943.89453,0.0542828552
1942.60889,0.0542933866
1941.32324,0.0540760793
1940.03760,0.0536717363
1938.75195,0.0532544479
1937.46631,0.0529439859
1936.18066,0.0527407452
1934.89502,0.0525941066
1933.60938,0.0524654463
1932.32373,0.0523335226
1931.03809,0.0521829017
1929.75244,0.0520109423
1928.46680,0.0518348217
1927.18115,0.0516998246
1925.89551,0.0516732074
1924.60986,0.0517855883
1923.32422,0.0519520603
1922.03857,0.0520086959
1920.75293,0.0518861040
1919.46729,0.0516604967
1918.18164,0.0514006503
1916.89600,0.0510835312
1915.61035,0.0506976135
1914.32471,0.0503238626
1913.03906,0.0500623174
1911.75342,0.0499501154
1910.46777,0.0499404483
1909.18213,0.0499157645
1907.89648,0.0497647300
1906.61084,0.0494870692
1905.32520,0.0491760187
1904.03955,0.0488942191
1902.75391,0.0486224405
1901.46826,0.0483276024
1900.18262,0.0480283946
1898.89697,0.0477779321
1897.61133,0.0476150736
1896.32568,0.0475324430
1895.04004,0.0474698916
1893.75439,0.0473677702
1892.46875,0.0472421795
1891.18311,0.0471567623
1889.89746,0.0471113473
1888.61182,0.0470132641
1887.32617,0.0467869416
1886.04053,0.0464554541
1884.75488,0.0460826345
1883.46924,0.0457237661
1882.18359,0.0454270914
1880.89795,0.0452121086
1879.61230,0.0450418852
1878.32666,0.0448533855
1877.04102,0.0446231924
1875.75537,0.0443929546
1874.46973,0.0442378409
1873.18408,0.0442260616
1871.89844,0.0444047377
1870.61279,0.0447787084
1869.32715,0.0452159941
1868.04150,0.0453857668
1866.75586,0.0450417399
1865.47021,0.0443586074
1864.18457,0.0436849631
1862.89893,0.0431987196
1861.61328,0.0428857654
1860.32764,0.0426439941
1859.04199,0.0423795804
1857.75635,0.0420724377
1856.47070,0.0417785868
1855.18506,0.0415590554
1853.89941,0.0414127484
1852.61377,0.0413072854
1851.32813,0.0412505455
1850.04248,0.0412837453
1848.75684,0.0414131470
1847.47119,0.0415987633
1846.18555,0.0418011062
1844.89990,0.0419624224
1843.61426,0.0419456549
1842.32861,0.0416509882
1841.04297,0.0411984622
1839.75732,0.0408044718
1838.47168,0.0405849181
1837.18604,0.0404982083
1835.90039,0.0404094495
1834.61475,0.0402665697
1833.32910,0.0401963107
1832.04346,0.0403715819
1830.75781,0.0407986119
1829.47217,0.0412097611
1828.18652,0.0412949547
1826.90088,0.0410749577
1825.61523,0.0407614224
1824.32959,0.0404278599
1823.04395,0.0400292873
1821.75830,0.0395952687
1820.47266,0.0392381735
1819.18701,0.0390133448
1817.90137,0.0388796143
1816.61572,0.0387848169
1815.33008,0.0387406386
1814.04443,0.0388001837
1812.75879,0.0389872380
1811.47314,0.0392378606
1810.18750,0.0393911153
1808.90186,0.0393177122
1807.61621,0.0390778594
1806.33057,0.0388612412
1805.04492,0.0388209336
1803.75928,0.0390139148
1802.47363,0.0394056588
1801.18799,0.0398574769
1799.90234,0.0401867703
1798.61670,0.0403434858
1797.33105,0.0404501595
1796.04541,0.0406553224
1794.75977,0.0410685241
1793.47412,0.0417322516
1792.18848,0.0424449705
1790.90283,0.0427614637
1789.61719,0.0425892845
1788.33154,0.0423549525
1787.04590,0.0424481928
1785.76025,0.0429810658
1784.47461,0.0438565202
1783.18896,0.0449066609
1781.90332,0.0460402109
1780.61768,0.0472362377
1779.33203,0.0484378487
1778.04639,0.0496033616
1776.76074,0.0508546494
1775.47510,0.0524509847
1774.18945,0.0546584427
1772.90381,0.0576012321
1771.61816,0.0609628484
1770.33252,0.0640670285
1769.04688,0.0667495579
1767.76123,0.0694395006
1766.47559,0.0724145770
1765.18994,0.0756802633
1763.90430,0.0794802755
1762.61865,0.0844018310
1761.33301,0.0905443206
1760.04736,0.0969958305
1758.76172,0.1031883806
1757.47607,0.1096955240
1756.19043,0.1168685630
1754.90479,0.1241012588
1753.61914,0.1310818493
1752.33350,0.1386844814
1751.04785,0.1481897235
1749.76221,0.1598014086
1748.47656,0.1718390137
1747.19092,0.1825488210
1745.90527,0.1919883937
1744.61963,0.2010743618
1743.33398,0.2103008032
1742.04834,0.2197979987
1740.76270,0.2298445404
1739.47705,0.2402890474
1738.19141,0.2498558462
1736.90576,0.2577574253
1735.62012,0.2653470039
1734.33447,0.2749986351
1733.04883,0.2864457667
1731.76318,0.2957504392
1730.47754,0.3016911149
1729.19189,0.3060981035
1727.90625,0.3100136220
1726.62061,0.3135804236
1725.33496,0.3169100583
1724.04932,0.3200422823
1722.76367,0.3227052093
1721.47803,0.3246020377
1720.19238,0.3257736266
1718.90674,0.3264737427
1717.62109,0.3265970945
1716.33545,0.3251120448
1715.04980,0.3214272559
1713.76416,0.3167306483
1712.47852,0.3120091558
1711.19287,0.3072370589
1709.90723,0.3022197187
1708.62158,0.2969368994
1707.33594,0.2911413610
1706.05029,0.2843878269
1704.76465,0.2770566344
1703.47900,0.2702674270
1702.19336,0.2640209496
1700.90771,0.2569046021
1699.62207,0.2480665594
1698.33643,0.2387750000
1697.05078,0.2297504246
1695.76514,0.2198742479
1694.47949,0.2096366137
1693.19385,0.2009682655
1691.90820,0.1940512657
1690.62256,0.1876402944
1689.33691,0.1809911579
1688.05127,0.1745666265
1686.76563,0.1689832658
1685.47998,0.1636212468
1684.19434,0.1569274664
1682.90869,0.1491088867
1681.62305,0.1425841302
1680.33740,0.1377576739
1679.05176,0.1337683648
1677.76611,0.1302585155
1676.48047,0.1269922704
1675.19482,0.1234536022
1673.90918,0.1195017621
1672.62354,0.1158868372
1671.33789,0.1131607741
1670.05225,0.1108865961
1668.76660,0.1082931831
1667.48096,0.1054226607
1666.19531,0.1028886661
1664.90967,0.1009237990
1663.62402,0.0994994491
1662.33838,0.0985096544
1661.05273,0.0976557061
1659.76709,0.0966983736
1658.48145,0.0957863629
1657.19580,0.0952693149
1655.91016,0.0955330804
1654.62451,0.0970557034
1653.33887,0.0997853428
1652.05322,0.1014408544
1650.76758,0.1008023620
1649.48193,0.0998821557
1648.19629,0.0997380167
1646.91064,0.1000962257
1645.62500,0.1000531986
1644.33936,0.0993211120
1643.05371,0.0985208005
1641.76807,0.0981317610
1640.48242,0.0983189344
1639.19678,0.0991447866
1637.91113,0.1007237136
1636.62549,0.1031162292
1635.33984,0.1054377630
1634.05420,0.1060339510
1632.76855,0.1050938219
1631.48291,0.1038811952
1630.19727,0.1030117050
1628.91162,0.1026259363
1627.62598,0.1026151031
1626.34033,0.1026326269
1625.05469,0.1023129001
1623.76904,0.1014624611
1622.48340,0.1000624299
1621.19775,0.0983248055
1619.91211,0.0965628177
1618.62646,0.0948636904
1617.34082,0.0929665715
1616.05518,0.0905350149
1614.76953,0.0877513736
1613.48389,0.0850538239
1612.19824,0.0825352371
1610.91260,0.0801174492
1609.62695,0.0777409822
1608.34131,0.0753388032
1607.05566,0.0728554726
1605.77002,0.0703298599
1604.48438,0.0678442717
1603.19873,0.0654188693
1601.91309,0.0630266517
1600.62744,0.0607013032
1599.34180,0.0585839078
1598.05615,0.0568320565
1596.77051,0.0554632060
1595.48486,0.0542683974
1594.19922,0.0529351868
1592.91357,0.0513240770
1591.62793,0.0495779999
1590.34229,0.0479330495
1589.05664,0.0465015545
1587.77100,0.0452299789
1586.48535,0.0440110974
1585.19971,0.0428048521
1583.91406,0.0416561700
1582.62842,0.0406471640
1581.34277,0.0398710370
1580.05713,0.0394199155
1578.77148,0.0393132903
1577.48584,0.0393257029
1576.20020,0.0388431847
1574.91455,0.0374975614
1573.62891,0.0359480418
1572.34326,0.0348553583
1571.05762,0.0342285745
1569.77197,0.0337373242
1568.48633,0.0330386870
1567.20068,0.0321328193
1565.91504,0.0312610455
1564.62939,0.0305935945
1563.34375,0.0302464608
1562.05811,0.0303713121
1560.77246,0.0311793815
1559.48682,0.0326642506
1558.20117,0.0334716551
1556.91553,0.0322502628
1555.62988,0.0303806141
1554.34424,0.0288359281
1553.05859,0.0277027525
1551.77295,0.0269295964
1550.48730,0.0263923369
1549.20166,0.0259599648
1547.91602,0.0256737955
1546.63037,0.0257264152
1545.34473,0.0262557007
1544.05908,0.0272150766
1542.77344,0.0283982698
1541.48779,0.0294458009
1540.20215,0.0294817053
1538.91650,0.0279238671
1537.63086,0.0260379612
1536.34521,0.0248336010
1535.05957,0.0242841169
1533.77393,0.0240206085
1532.48828,0.0236399770
1531.20264,0.0231108125
1529.91699,0.0227593184
1528.63135,0.0227670670
1527.34570,0.0230291877
1526.06006,0.0233065467
1524.77441,0.0235301089
1523.48877,0.0238828808
1522.20313,0.0243871398
1520.91748,0.0246100258
1519.63184,0.0242284145
1518.34619,0.0235377047
1517.06055,0.0228507128
1515.77490,0.0221754313
1514.48926,0.0215235259
1513.20361,0.0210870858
1511.91797,0.0210824907
1510.63232,0.0216266587
1509.34668,0.0227299966
1508.06104,0.0241469927
1506.77539,0.0247528609
1505.48975,0.0234920420
1504.20410,0.0216951184
1502.91846,0.0205013677
1501.63281,0.0199764967
1500.34717,0.0200246368
1499.06152,0.0205351263
1497.77588,0.0211971793
1496.49023,0.0215058737
1495.20459,0.0213008057
1493.91895,0.0209989958
1492.63330,0.0210507549
1491.34766,0.0216385741
1490.06201,0.0225976948
1488.77637,0.0233181547
1487.49072,0.0233158618
1486.20508,0.0228919685
1484.91943,0.0225609932
1483.63379,0.0225449074
1482.34814,0.0228316691
1481.06250,0.0232981890
1479.77686,0.0238503087
1478.49121,0.0245368332
1477.20557,0.0254878588
1475.91992,0.0267809238
1474.63428,0.0283974670
1473.34863,0.0301127397
1472.06299,0.0313059762
1470.77734,0.0315704644
1469.49170,0.0314220041
1468.20605,0.0315942988
1466.92041,0.0324893296
1465.63477,0.0341564044
1464.34912,0.0361845866
1463.06348,0.0379663557
1461.77783,0.0394314788
1460.49219,0.0410617255
1459.20654,0.0435357653
1457.92090,0.0474582538
1456.63525,0.0521041825
1455.34961,0.0552924164
1454.06396,0.0569725186
1452.77832,0.0584931783
1451.49268,0.0605321974
1450.20703,0.0632171333
1448.92139,0.0664562434
1447.63574,0.0699797645
1446.35010,0.0733438879
1445.06445,0.0762370601
1443.77881,0.0787280276
1442.49316,0.0810246915
1441.20752,0.0831810758
1439.92188,0.0851822123
1438.63623,0.0872134939
1437.35059,0.0895855576
1436.06494,0.0921266004
1434.77930,0.0940852687
1433.49365,0.0953088701
1432.20801,0.0963708088
1430.92236,0.0976680219
1429.63672,0.0990802348
1428.35107,0.1002715304
1427.06543,0.1012234762
1425.77979,0.1022130251
1424.49414,0.1033834890
1423.20850,0.1046059281
1421.92285,0.1058054343
1420.63721,0.1072752476
1419.35156,0.1093663052
1418.06592,0.1117208526
1416.78027,0.1134638041
1415.49463,0.1145473793
1414.20898,0.1155861691
1412.92334,0.1169648468
1411.63770,0.1186891496
1410.35205,0.1205764040
1409.06641,0.1224556863
1407.78076,0.1243043840
1406.49512,0.1262079626
1405.20947,0.1281082332
1403.92383,0.1296946406
1402.63818,0.1307873875
1401.35254,0.1315915585
1400.06689,0.1323401630
1398.78125,0.1329564899
1397.49561,0.1331715584
1396.20996,0.1328366846
1394.92432,0.1319694370
1393.63867,0.1306991875
1392.35303,0.1293028742
1391.06738,0.1280564666
1389.78174,0.1270635426
1388.49609,0.1262352467
1387.21045,0.1253248006
1385.92480,0.1241299883
1384.63916,0.1227557659
1383.35352,0.1214848980
1382.06787,0.1205023974
1380.78223,0.1198455095
1379.49658,0.1194708124
1378.21094,0.1193252578
1376.92529,0.1193959787
1375.63965,0.1196717769
1374.35400,0.1200296506
1373.06836,0.1202733442
1371.78271,0.1204086989
1370.49707,0.1206870526
1369.21143,0.1212980151
1367.92578,0.1221943051
1366.64014,0.1232422143
1365.35449,0.1244653463
1364.06885,0.1260037422
1362.78320,0.1278135180
1361.49756,0.1295414120
1360.21191,0.1309215873
1358.92627,0.1321125478
1357.64063,0.1334227771
1356.35498,0.1349879950
1355.06934,0.1367380172
1353.78369,0.1385394037
1352.49805,0.1403298974
1351.21240,0.1421073079
1349.92676,0.1438530236
1348.64111,0.1455419511
1347.35547,0.1471840143
1346.06982,0.1487913728
1344.78418,0.1503429711
1343.49854,0.1518509388
1342.21289,0.1534144878
1340.92725,0.1551313251
1339.64160,0.1569298357
1338.35596,0.1585432291
1337.07031,0.1597654372
1335.78467,0.1606636792
1334.49902,0.1614471972
1333.21338,0.1622679234
1331.92773,0.1631710678
1330.64209,0.1641328782
1329.35645,0.1650911719
1328.07080,0.1659715623
1326.78516,0.1667463779
1325.49951,0.1674671918
1324.21387,0.1681998819
1322.92822,0.1689419001
1321.64258,0.1696311384
1320.35693,0.1701978445
1319.07129,0.1705925018
1317.78564,0.1708229482
1316.50000,0.1709746867
1315.21436,0.1711266339
1313.92871,0.1712531894
1312.64307,0.1712682694
1311.35742,0.1711431742
1310.07178,0.1709281057
1308.78613,0.1706732064
1307.50049,0.1703911871
1306.21484,0.1700882614
1304.92920,0.1697869897
1303.64355,0.1695028841
1302.35791,0.1692077368
1301.07227,0.1688368320
1299.78662,0.1683529019
1298.50098,0.1677954346
1297.21533,0.1672499329
1295.92969,0.1667728573
1294.64404,0.1663498133
1293.35840,0.1659133434
1292.07275,0.1654038280
1290.78711,0.1648348123
1289.50146,0.1642871499
1288.21582,0.1638223529
1286.93018,0.1634211689
1285.64453,0.1630341262
1284.35889,0.1626694798
1283.07324,0.1624020636
1281.78760,0.1623093039
1280.50195,0.1624038070
1279.21631,0.1626128107
1277.93066,0.1628436297
1276.64502,0.1630938500
1275.35938,0.1634797901
1274.07373,0.1641409993
1272.78809,0.1651401371
1271.50244,0.1664595008
1270.21680,0.1680544019
1268.93115,0.1698889583
1267.64551,0.1719385684
1266.35986,0.1741806120
1265.07422,0.1765995026
1263.78857,0.1792280972
1262.50293,0.1821758896
1261.21729,0.1855717152
1259.93164,0.1894563884
1258.64600,0.1937571913
1257.36035,0.1983842552
1256.07471,0.2033168972
1254.78906,0.2085768580
1253.50342,0.2141534686
1252.21777,0.2199880779
1250.93213,0.2260288298
1249.64648,0.2322740704
1248.36084,0.2387290746
1247.07520,0.2453180850
1245.78955,0.2518861294
1244.50391,0.2583221793
1243.21826,0.2646436393
1241.93262,0.2709123492
1240.64697,0.2771014869
1239.36133,0.2831096947
1238.07568,0.2888756990
1236.79004,0.2944068015
1235.50439,0.2996874154
1234.21875,0.3046287596
1232.93311,0.3091412187
1231.64746,0.3132074475
1230.36182,0.3168437183
1229.07617,0.3200144768
1227.79053,0.3226286769
1226.50488,0.3246136010
1225.21924,0.3259588182
1223.93359,0.3266836703
1222.64795,0.3267750740
1221.36230,0.3261613548
1220.07666,0.3247615993
1218.79102,0.3225892186
1217.50537,0.3198002875
1216.21973,0.3165977597
1214.93408,0.3130898774
1213.64844,0.3092723191
1212.36279,0.3051398098
1211.07715,0.3007602990
1209.79150,0.2962322235
1208.50586,0.2916192412
1207.22021,0.2869457901
1205.93457,0.2822153568
1204.64893,0.2774062455
1203.36328,0.2724778652
1202.07764,0.2674153447
1200.79199,0.2622635067
1199.50635,0.2571041286
1198.22070,0.2519925833
1196.93506,0.2469215244
1195.64941,0.2418429255
1194.36377,0.2367213368
1193.07813,0.2315572351
1191.79248,0.2263660431
1190.50684,0.2211569548
1189.22119,0.2159423381
1187.93555,0.2107416838
1186.64990,0.2055549473
1185.36426,0.2003361583
1184.07861,0.1949917972
1182.79297,0.1894035339
1181.50732,0.1834846139
1180.22168,0.1772524565
1178.93604,0.1708372086
1177.65039,0.1643886417
1176.36475,0.1579835117
1175.07910,0.1516510695
1173.79346,0.1454669684
1172.50781,0.1395747215
1171.22217,0.1341195107
1169.93652,0.1291917562
1168.65088,0.1248240545
1167.36523,0.1210059151
1166.07959,0.1176974699
1164.79395,0.1148558334
1163.50830,0.1124611497
1162.22266,0.1105231494
1160.93701,0.1090764701
1159.65137,0.1081677750
1158.36572,0.1078184992
1157.08008,0.1079820469
1155.79443,0.1085566655
1154.50879,0.1094555184
1153.22314,0.1106381938
1151.93750,0.1120547578
1150.65186,0.1136000454
1149.36621,0.1151720956
1148.08057,0.1167568415
1146.79492,0.1183915511
1145.50928,0.1200417951
1144.22363,0.1215640530
1142.93799,0.1228146702
1141.65234,0.1237629950
1140.36670,0.1244907007
1139.08105,0.1251109987
1137.79541,0.1257062703
1136.50977,0.1262982637
1135.22412,0.1268301755
1133.93848,0.1271878034
1132.65283,0.1272893548
1131.36719,0.1271578670
1130.08154,0.1268767416
1128.79590,0.1264870912
1127.51025,0.1259715408
1126.22461,0.1253271699
1124.93896,0.1245772094
1123.65332,0.1236929968
1122.36768,0.1225715354
1121.08203,0.1211342961
1119.79639,0.1194192842
1118.51074,0.1175541654
1117.22510,0.1156634241
1115.93945,0.1138046980
1114.65381,0.1119693220
1113.36816,0.1101276204
1112.08252,0.1082823798
1110.79688,0.1064730659
1109.51123,0.1047207713
1108.22559,0.1029867008
1106.93994,0.1012041941
1105.65430,0.0993412435
1104.36865,0.0974280015
1103.08301,0.0955422744
1101.79736,0.0937748775
1100.51172,0.0921803415
1099.22607,0.0907582045
1097.94043,0.0895063430
1096.65479,0.0884809345
1095.36914,0.0877599344
1094.08350,0.0873520449
1092.79785,0.0871984884
1091.51221,0.0872682333
1090.22656,0.0875985995
1088.94092,0.0882335305
1087.65527,0.0891643912
1086.36963,0.0903236866
1085.08398,0.0915929005
1083.79834,0.0928284824
1082.51270,0.0939259231
1081.22705,0.0948549658
1079.94141,0.0955997556
1078.65576,0.0960960686
1077.37012,0.0962782279
1076.08447,0.0961732715
1074.79883,0.0959086046
1073.51318,0.0956305414
1072.22754,0.0954229459
1070.94189,0.0952844024
1069.65625,0.0951732248
1068.37061,0.0950982422
1067.08496,0.0951659232
1065.79932,0.0955091789
1064.51367,0.0961514413
1063.22803,0.0969565138
1061.94238,0.0977205113
1060.65674,0.0983029902
1059.37109,0.0986727253
1058.08545,0.0988605842
1056.79980,0.0988896117
1055.51416,0.0987409949
1054.22852,0.0983687639
1052.94287,0.0977482274
1051.65723,0.0969152153
1050.37158,0.0959501192
1049.08594,0.0949243382
1047.80029,0.0938856229
1046.51465,0.0928821787
1045.22900,0.0919551700
1043.94336,0.0910933986
1042.65771,0.0902389511
1041.37207,0.0893564522
1040.08643,0.0884618238
1038.80078,0.0875754431
1037.51514,0.0866931528
1036.22949,0.0858251899
1034.94385,0.0850306824
1033.65820,0.0843789130
1032.37256,0.0838825181
1031.08691,0.0834843367
1029.80127,0.0831162259
1028.51563,0.0827602446
1027.22998,0.0824433640
1025.94434,0.0821771994
1024.65869,0.0819337070
1023.37305,0.0816837251
1022.08740,0.0814391300
1020.80176,0.0812492669
1019.51611,0.0811694935
1018.23047,0.0812266693
1016.94482,0.0813909173
1015.65918,0.0815831348
1014.37354,0.0817316547
1013.08789,0.0818241462
1011.80225,0.0819000378
1010.51660,0.0819984823
1009.23096,0.0821222439
1007.94531,0.0822470188
1006.65967,0.0823512971
1005.37402,0.0824253634
1004.08838,0.0824485645
1002.80273,0.0823934451
1001.51709,0.0822773054
1000.23145,0.0821806416
998.94580,0.0821765438
997.66016,0.0822542384
996.37451,0.0823374391
995.08887,0.0823609307
993.80322,0.0823111907
992.51758,0.0822174922
991.23193,0.0821206942
989.94629,0.0820288807
988.66064,0.0819064453
987.37500,0.0817329958
986.08936,0.0815567076
984.80371,0.0814427435
983.51807,0.0813869908
982.23242,0.0813288614
980.94678,0.0812389553
979.66113,0.0811383873
978.37549,0.0810349807
977.08984,0.0808929056
975.80420,0.0806889459
974.51855,0.0804649442
973.23291,0.0802908465
971.94727,0.0801832974
970.66162,0.0800852701
969.37598,0.0799260512
968.09033,0.0796854869
966.80469,0.0794031397
965.51904,0.0791524947
964.23340,0.0790009424
962.94775,0.0789532140
961.66211,0.0789238438
960.37646,0.0788000301
959.09082,0.0785550401
957.80518,0.0782801509
956.51953,0.0781000182
955.23389,0.0780766159
953.94824,0.0781902894
952.66260,0.0783787668
951.37695,0.0785819665
950.09131,0.0787763819
948.80566,0.0789905414
947.52002,0.0792755112
946.23438,0.0796268657
944.94873,0.0799392685
943.66309,0.0800711662
942.37744,0.0799692050
941.09180,0.0797016248
939.80615,0.0793548450
938.52051,0.0789393708
937.23486,0.0784162208
935.94922,0.0777658150
934.66357,0.0769896358
933.37793,0.0760884956
932.09229,0.0750811026
930.80664,0.0740153268
929.52100,0.0729213580
928.23535,0.0717768967
926.94971,0.0705589801
925.66406,0.0693167076
924.37842,0.0681523010
923.09277,0.0671208054
921.80713,0.0661641583
920.52148,0.0651630238
919.23584,0.0640656203
917.95020,0.0629679337
916.66455,0.0620457046
915.37891,0.0613903813
914.09326,0.0609307364
912.80762,0.0605493337
911.52197,0.0602585375
910.23633,0.0602124445
908.95068,0.0605311468
907.66504,0.0611592196
906.37939,0.0619266927
905.09375,0.0627040192
903.80811,0.0634496659
902.52246,0.0641211867
901.23682,0.0646033213
899.95117,0.0647551641
