3999.64014,-0.1146882549
3998.35449,-0.1148679107
3997.06885,-0.1150265262
3995.78320,-0.1151464880
3994.49756,-0.1152638495
3993.21191,-0.1153889224
3991.92627,-0.1154940426
3990.64063,-0.1155787930
3989.35498,-0.1156807095
3988.06934,-0.1158132181
3986.78369,-0.1159455553
3985.49805,-0.1160513163
3984.21240,-0.1161296070
3982.92676,-0.1161723733
3981.64111,-0.1161513552
3980.35547,-0.1160517037
3979.06982,-0.1159002855
3977.78418,-0.1157601476
3976.49854,-0.1156927273
3975.21289,-0.1157006249
3973.92725,-0.1157010645
3972.64160,-0.1155903488
3971.35596,-0.1153486669
3970.07031,-0.1150541380
3968.78467,-0.1147956625
3967.49902,-0.1146006286
3966.21338,-0.1144382805
3964.92773,-0.1142610535
3963.64209,-0.1140509248
3962.35645,-0.1138413399
3961.07080,-0.1136792675
3959.78516,-0.1135530770
3958.49951,-0.1133913398
3957.21387,-0.1131563559
3955.92822,-0.1129057407
3954.64258,-0.1127291396
3953.35693,-0.1126400530
3952.07129,-0.1125522703
3950.78564,-0.1123619303
3949.50000,-0.1120586619
3948.21436,-0.1117584109
3946.92871,-0.1116017997
3945.64307,-0.1116045192
3944.35742,-0.1116436869
3943.07178,-0.1116061658
3941.78613,-0.1115144342
3940.50049,-0.1114755794
3939.21484,-0.1115352213
3937.92920,-0.1116225123
3936.64355,-0.1116346270
3935.35791,-0.1115344241
3934.07227,-0.1113596559
3932.78662,-0.1111651957
3931.50098,-0.1109835431
3930.21533,-0.1108269840
3928.92969,-0.1106864884
3927.64404,-0.1105242744
3926.35840,-0.1103052273
3925.07275,-0.1100453809
3923.78711,-0.1097966731
3922.50146,-0.1095646173
3921.21582,-0.1092800274
3919.93018,-0.1088756323
3918.64453,-0.1083773375
3917.35889,-0.1078988761
3916.07324,-0.1075449288
3914.78760,-0.1073121652
3913.50195,-0.1070870608
3912.21631,-0.1067486256
3910.93066,-0.1062692478
3909.64502,-0.1056967974
3908.35938,-0.1050525159
3907.07373,-0.1042984873
3905.78809,-0.1034223959
3904.50244,-0.1025130749
3903.21680,-0.1017071232
3901.93115,-0.1010813713
3900.64551,-0.1006400362
3899.35986,-0.1003740281
3898.07422,-0.1002619714
3896.78857,-0.1002058312
3895.50293,-0.1000455767
3894.21729,-0.0996854231
3892.93164,-0.0991924927
3891.64600,-0.0987487435
3890.36035,-0.0984885097
3889.07471,-0.0983801186
3887.78906,-0.0982758030
3886.50342,-0.0980814993
3885.21777,-0.0978563353
3883.93213,-0.0977135971
3882.64648,-0.0976726338
3881.36084,-0.0976882502
3880.07520,-0.0977879614
3878.78955,-0.0980485454
3877.50391,-0.0984377414
3876.21826,-0.0988136083
3874.93262,-0.0991150290
3873.64697,-0.0994403586
3872.36133,-0.0998961478
3871.07568,-0.1004608870
3869.79004,-0.1010559350
3868.50439,-0.1016687304
3867.21875,-0.1023347825
3865.93311,-0.1030515954
3864.64746,-0.1037855670
3863.36182,-0.1045418382
3862.07617,-0.1053529158
3860.79053,-0.1061930731
3859.50488,-0.1069508940
3858.21924,-0.1074946970
3856.93359,-0.1077520177
3855.64795,-0.1077776253
3854.36230,-0.1078145429
3853.07666,-0.1082153097
3851.79102,-0.1091520712
3850.50537,-0.1104236767
3849.21973,-0.1116512418
3847.93408,-0.1126028150
3846.64844,-0.1132801175
3845.36279,-0.1137793064
3844.07715,-0.1141815707
3842.79150,-0.1145552471
3841.50586,-0.1149695292
3840.22021,-0.1154699177
3838.93457,-0.1160567030
3837.64893,-0.1166784912
3836.36328,-0.1172541305
3835.07764,-0.1177345738
3833.79199,-0.1181492433
3832.50635,-0.1185669303
3831.22070,-0.1190114766
3829.93506,-0.1194407493
3828.64941,-0.1198192388
3827.36377,-0.1201853305
3826.07813,-0.1206125394
3824.79248,-0.1210921407
3823.50684,-0.1215102151
3822.22119,-0.1217835695
3820.93555,-0.1219713092
3819.64990,-0.1221847087
3818.36426,-0.1224366054
3817.07861,-0.1226763651
3815.79297,-0.1229285449
3814.50732,-0.1232908294
3813.22168,-0.1238042787
3811.93604,-0.1243820190
3810.65039,-0.1248587221
3809.36475,-0.1250992715
3808.07910,-0.1251174510
3806.79346,-0.1250813901
3805.50781,-0.1251304895
3804.22217,-0.1252197772
3802.93652,-0.1252477020
3801.65088,-0.1252726316
3800.36523,-0.1254535913
3799.07959,-0.1258016974
3797.79395,-0.1261513978
3796.50830,-0.1263815016
3795.22266,-0.1265257448
3793.93701,-0.1266542822
3792.65137,-0.1267665476
3791.36572,-0.1268282086
3790.08008,-0.1268164217
3788.79443,-0.1266950667
3787.50879,-0.1264325380
3786.22314,-0.1260926127
3784.93750,-0.1258308738
3783.65186,-0.1257292926
3782.36621,-0.1256899834
3781.08057,-0.1255707741
3779.79492,-0.1253822297
3778.50928,-0.1252607554
3777.22363,-0.1252628118
3775.93799,-0.1252736747
3774.65234,-0.1251244992
3773.36670,-0.1247416139
3772.08105,-0.1241917014
3770.79541,-0.1236389726
3769.50977,-0.1232482344
3768.22412,-0.1230691597
3766.93848,-0.1230051517
3765.65283,-0.1229046807
3764.36719,-0.1226655543
3763.08154,-0.1222483665
3761.79590,-0.1216575727
3760.51025,-0.1209668145
3759.22461,-0.1203212216
3757.93896,-0.1198384091
3756.65332,-0.1194947436
3755.36768,-0.1191518083
3754.08203,-0.1186920479
3752.79639,-0.1181179360
3751.51074,-0.1175502539
3750.22510,-0.1171358600
3748.93945,-0.1168999895
3747.65381,-0.1166934669
3746.36816,-0.1163520440
3745.08252,-0.1159145087
3743.79688,-0.1156083941
3742.51123,-0.1155782342
3741.22559,-0.1156987473
3739.93994,-0.1156959757
3738.65430,-0.1153727546
3737.36865,-0.1147295535
3736.08301,-0.1139689088
3734.79736,-0.1133785769
3733.51172,-0.1131193042
3732.22607,-0.1131089330
3730.94043,-0.1131315827
3729.65479,-0.1130162776
3728.36914,-0.1127014235
3727.08350,-0.1122103781
3725.79785,-0.1116229519
3724.51221,-0.1110267714
3723.22656,-0.1104565188
3721.94092,-0.1098994091
3720.65527,-0.1093554199
3719.36963,-0.1088410616
3718.08398,-0.1083302721
3716.79834,-0.1077257544
3715.51270,-0.1069103926
3714.22705,-0.1058456078
3712.94141,-0.1046475470
3711.65576,-0.1035387069
3710.37012,-0.1026640087
3709.08447,-0.1019584015
3707.79883,-0.1012371480
3706.51318,-0.1003713310
3705.22754,-0.0993271917
3703.94189,-0.0981114432
3702.65625,-0.0967709497
3701.37061,-0.0954077244
3700.08496,-0.0940947905
3698.79932,-0.0927870199
3697.51367,-0.0913869664
3696.22803,-0.0898685753
3694.94238,-0.0882573724
3693.65674,-0.0865102410
3692.37109,-0.0845215693
3691.08545,-0.0822933540
3689.79980,-0.0800234228
3688.51416,-0.0779416710
3687.22852,-0.0760718212
3685.94287,-0.0742200240
3684.65723,-0.0721751004
3683.37158,-0.0698471069
3682.08594,-0.0672416463
3680.80029,-0.0643841997
3679.51465,-0.0612851158
3678.22900,-0.0579351485
3676.94336,-0.0543522239
3675.65771,-0.0506593287
3674.37207,-0.0470356792
3673.08643,-0.0435057692
3671.80078,-0.0398728848
3670.51514,-0.0359508842
3669.22949,-0.0317706876
3667.94385,-0.0274671577
3666.65820,-0.0230590962
3665.37256,-0.0184538309
3664.08691,-0.0135924779
3662.80127,-0.0084805647
3661.51563,-0.0031360216
3660.22998,0.0024299971
3658.94434,0.0082186740
3657.65869,0.0142388735
3656.37305,0.0204501618
3655.08740,0.0267576035
3653.80176,0.0331407934
3652.51611,0.0397161394
3651.23047,0.0465875976
3649.94482,0.0536892228
3648.65918,0.0608403571
3647.37354,0.0678998604
3646.08789,0.0748298392
3644.80225,0.0816889703
3643.51660,0.0886105224
3642.23096,0.0957208127
3640.94531,0.1030419916
3639.65967,0.1104842424
3638.37402,0.1179382578
3637.08838,0.1253658980
3635.80273,0.1328219324
3634.51709,0.1403972208
3633.23145,0.1481480598
3631.94580,0.1560945809
3630.66016,0.1642321795
3629.37451,0.1724724025
3628.08887,0.1806083769
3626.80322,0.1884539723
3625.51758,0.1960042268
3624.23193,0.2034132630
3622.94629,0.2108753473
3621.66064,0.2185472697
3620.37500,0.2264566720
3619.08936,0.2344430387
3617.80371,0.2422965467
3616.51807,0.2499860525
3615.23242,0.2576602697
3613.94678,0.2654450536
3612.66113,0.2733467221
3611.37549,0.2813234925
3610.08984,0.2893325686
3608.80420,0.2973135114
3607.51855,0.3052082658
3606.23291,0.3130210638
3604.94727,0.3208185136
3603.66162,0.3286737800
3602.37598,0.3366199732
3601.09033,0.3446568847
3599.80469,0.3527832627
3598.51904,0.3609915376
3597.23340,0.3692352474
3595.94775,0.3774368763
3594.66211,0.3855552971
3593.37646,0.3936326802
3592.09082,0.4017760754
3590.80518,0.4101110101
3589.51953,0.4187038243
3588.23389,0.4274812043
3586.94824,0.4362638593
3585.66260,0.4449367225
3584.37695,0.4535489976
3583.09131,0.4622220993
3581.80566,0.4710217118
3580.52002,0.4799674451
3579.23438,0.4891065955
3577.94873,0.4984832108
3576.66309,0.5080212355
3575.37744,0.5175232887
3574.09180,0.5268700123
3572.80615,0.5361526608
3571.52051,0.5455452204
3570.23486,0.5551446676
3568.94922,0.5650151968
3567.66357,0.5752120614
3566.37793,0.5855780244
3565.09229,0.5956999660
3563.80664,0.6053063869
3562.52100,0.6145921350
3561.23535,0.6239817142
3559.94971,0.6336862445
3558.66406,0.6436276436
3557.37842,0.6536776423
3556.09277,0.6638206840
3554.80713,0.6740810275
3553.52148,0.6843898892
3552.23584,0.6946283579
3550.95020,0.7047991753
3549.66455,0.7150502205
3548.37891,0.7254441381
3547.09326,0.7358509898
3545.80762,0.7461521029
3544.52197,0.7563813329
3543.23633,0.7665936351
3541.95068,0.7767809033
3540.66504,0.7869809866
3539.37939,0.7972781062
3538.09375,0.8076499701
3536.80811,0.8179928064
3535.52246,0.8283494115
3534.23682,0.8389669657
3532.95117,0.8500763178
3531.66553,0.8616116643
3530.37988,0.8731073141
3529.09424,0.8840124607
3527.80859,0.8942369223
3526.52295,0.9042863846
3525.23730,0.9147354960
3523.95166,0.9257523417
3522.66602,0.9372358918
3521.38037,0.9491173625
3520.09473,0.9612755775
3518.80908,0.9733647108
3517.52344,0.9850568175
3516.23779,0.9964627624
3514.95215,1.0081021786
3513.66650,1.0202608109
3512.38086,1.0324958563
3511.09521,1.0440281630
3509.80957,1.0546374321
3508.52393,1.0649441481
3507.23828,1.0756754875
3505.95264,1.0868779421
3504.66699,1.0979080200
3503.38135,1.1080924273
3502.09570,1.1173459291
3500.81006,1.1261624098
3499.52441,1.1349093914
3498.23877,1.1434028149
3496.95313,1.1514476538
3495.66748,1.1594870090
3494.38184,1.1682232618
3493.09619,1.1776669025
3491.81055,1.1871196032
3490.52490,1.1960610151
3489.23926,1.2045528889
3487.95361,1.2126094103
3486.66797,1.2196911573
3485.38232,1.2253506184
3484.09668,1.2303436995
3482.81104,1.2362208366
3481.52539,1.2433722019
3480.23975,1.2502176762
3478.95410,1.2552771568
3477.66846,1.2594382763
3476.38281,1.2649388313
3475.09717,1.2726353407
3473.81152,1.2812463045
3472.52588,1.2891540527
3471.24023,1.2958989143
3469.95459,1.3022640944
3468.66895,1.3095228672
3467.38330,1.3185876608
3466.09766,1.3292026520
3464.81201,1.3401633501
3463.52637,1.3502111435
3462.24072,1.3586642742
3460.95508,1.3654733896
3459.66943,1.3713351488
3458.38379,1.3773955107
3457.09814,1.3841344118
3455.81250,1.3908813000
3454.52686,1.3970630169
3453.24121,1.4032130241
3451.95557,1.4100741148
3450.66992,1.4171946049
3449.38428,1.4232680798
3448.09863,1.4275082350
3446.81299,1.4302904606
3445.52734,1.4323996305
3444.24170,1.4345154762
3442.95605,1.4369583130
3441.67041,1.4397990704
3440.38477,1.4427198172
3439.09912,1.4450883865
3437.81348,1.4458832741
3436.52783,1.4443510771
3435.24219,1.4404214621
3433.95654,1.4348698854
3432.67090,1.4289088249
3431.38525,1.4237121344
3430.09961,1.4199479818
3428.81396,1.4175529480
3427.52832,1.4157960415
3426.24268,1.4138783216
3424.95703,1.4114907980
3423.67139,1.4088640213
3422.38574,1.4066079855
3421.10010,1.4053779840
3419.81445,1.4049792290
3418.52881,1.4039900303
3417.24316,1.4011526108
3415.95752,1.3976646662
3414.67188,1.3963116407
3413.38623,1.3980580568
3412.10059,1.4005106688
3410.81494,1.4006884098
3409.52930,1.3980566263
3408.24365,1.3942841291
3406.95801,1.3910384178
3405.67236,1.3894157410
3404.38672,1.3901337385
3403.10107,1.3931884766
3401.81543,1.3973907232
3400.52979,1.4009556770
3399.24414,1.4025690556
3397.95850,1.4021712542
3396.67285,1.4008040428
3395.38721,1.3995372057
3394.10156,1.3982640505
3392.81592,1.3958262205
3391.53027,1.3914793730
3390.24463,1.3858538866
3388.95898,1.3802423477
3387.67334,1.3754501343
3386.38770,1.3712737560
3385.10205,1.3669008017
3383.81641,1.3616695404
3382.53076,1.3554999828
3381.24512,1.3484218121
3379.95947,1.3402932882
3378.67383,1.3313665390
3377.38818,1.3229293823
3376.10254,1.3161388636
3374.81689,1.3101508617
3373.53125,1.3024111986
3372.24561,1.2913650274
3370.95996,1.2780215740
3369.67432,1.2646678686
3368.38867,1.2528094053
3367.10303,1.2426358461
3365.81738,1.2334407568
3364.53174,1.2241984606
3363.24609,1.2142708302
3361.96045,1.2038376331
3360.67480,1.1936163902
3359.38916,1.1842918396
3358.10352,1.1759616137
3356.81787,1.1679587364
3355.53223,1.1592830420
3354.24658,1.1494761705
3352.96094,1.1391854286
3351.67529,1.1295511723
3350.38965,1.1211373806
3349.10400,1.1136578321
3347.81836,1.1064559221
3346.53271,1.0989414454
3345.24707,1.0907318592
3343.96143,1.0816836357
3342.67578,1.0719294548
3341.39014,1.0618335009
3340.10449,1.0518658161
3338.81885,1.0424031019
3337.53320,1.0333844423
3336.24756,1.0242403746
3334.96191,1.0143939257
3333.67627,1.0038950443
3332.39063,0.9933754206
3331.10498,0.9833369255
3329.81934,0.9736901522
3328.53369,0.9640672207
3327.24805,0.9543243647
3325.96240,0.9445599318
3324.67676,0.9347887039
3323.39111,0.9248495698
3322.10547,0.9145972729
3320.81982,0.9040585756
3319.53418,0.8933440447
3318.24854,0.8825232983
3316.96289,0.8716272712
3315.67725,0.8607813120
3314.39160,0.8502168655
3313.10596,0.8400746584
3311.82031,0.8302510977
3310.53467,0.8205131888
3309.24902,0.8107207417
3307.96338,0.8008360863
3306.67773,0.7908470631
3305.39209,0.7808383703
3304.10645,0.7710341811
3302.82080,0.7616132498
3301.53516,0.7525048852
3300.24951,0.7434672117
3298.96387,0.7342982888
3297.67822,0.7249395847
3296.39258,0.7155118585
3295.10693,0.7063031197
3293.82129,0.6975865364
3292.53564,0.6893578172
3291.25000,0.6813316941
3289.96436,0.6731886864
3288.67871,0.6647717357
3287.39307,0.6561094522
3286.10742,0.6474005580
3284.82178,0.6388925314
3283.53613,0.6306535602
3282.25049,0.6225280166
3280.96484,0.6143740416
3279.67920,0.6062178016
3278.39355,0.5981169939
3277.10791,0.5900404453
3275.82227,0.5819880366
3274.53662,0.5740634799
3273.25098,0.5663208365
3271.96533,0.5586569905
3270.67969,0.5509634018
3269.39404,0.5432534814
3268.10840,0.5355744362
3266.82275,0.5278924108
3265.53711,0.5201441050
3264.25146,0.5123460889
3262.96582,0.5045738816
3261.68018,0.4968882799
3260.39453,0.4893015623
3259.10889,0.4818149209
3257.82324,0.4744388759
3256.53760,0.4671828747
3255.25195,0.4600283504
3253.96631,0.4529457986
3252.68066,0.4459430277
3251.39502,0.4390749037
3250.10938,0.4323828816
3248.82373,0.4258366525
3247.53809,0.4193686843
3246.25244,0.4129341543
3244.96680,0.4065222740
3243.68115,0.4001429677
3242.39551,0.3938379586
3241.10986,0.3876778185
3239.82422,0.3817140758
3238.53857,0.3759332001
3237.25293,0.3702888489
3235.96729,0.3647520840
3234.68164,0.3593142927
3233.39600,0.3539423347
3232.11035,0.3485593200
3230.82471,0.3430873752
3229.53906,0.3375056386
3228.25342,0.3318789899
3226.96777,0.3263264000
3225.68213,0.3209589422
3224.39648,0.3158207536
3223.11084,0.3108656704
3221.82520,0.3059765399
3220.53955,0.3010260165
3219.25391,0.2959450185
3217.96826,0.2907657325
3216.68262,0.2856144309
3215.39697,0.2806275785
3214.11133,0.2758429050
3212.82568,0.2711750865
3211.54004,0.2665191293
3210.25439,0.2618480027
3208.96875,0.2571893930
3207.68311,0.2525473535
3206.39746,0.2479245812
3205.11182,0.2433826178
3203.82617,0.2389920801
3202.54053,0.2347274721
3201.25488,0.2304934114
3199.96924,0.2262634337
3198.68359,0.2221116126
3197.39795,0.2180909216
3196.11230,0.2141593546
3194.82666,0.2102569491
3193.54102,0.2063880414
3192.25537,0.2025926709
3190.96973,0.1988850087
3189.68408,0.1952588409
3188.39844,0.1917233020
3187.11279,0.1882889569
3185.82715,0.1849391013
3184.54150,0.1816428453
3183.25586,0.1783863902
3181.97021,0.1751745641
3180.68457,0.1720051765
3179.39893,0.1688686907
3178.11328,0.1657658070
3176.82764,0.1627151817
3175.54199,0.1597376764
3174.25635,0.1568404138
3172.97070,0.1540089399
3171.68506,0.1512112468
3170.39941,0.1484165341
3169.11377,0.1456164718
3167.82813,0.1428208947
3166.54248,0.1400265396
3165.25684,0.1372051388
3163.97119,0.1343341470
3162.68555,0.1314364821
3161.39990,0.1285709143
3160.11426,0.1257743835
3158.82861,0.1230181754
3157.54297,0.1202382147
3156.25732,0.1174066514
3154.97168,0.1145560667
3153.68604,0.1117298082
3152.40039,0.1089360416
3151.11475,0.1061647534
3149.82910,0.1034278646
3148.54346,0.1007523164
3147.25781,0.0981478244
3145.97217,0.0955968797
3144.68652,0.0930738375
3143.40088,0.0905593634
3142.11523,0.0880511329
3140.82959,0.0855728686
3139.54395,0.0831649005
3138.25830,0.0808550194
3136.97266,0.0786427930
3135.68701,0.0765201598
3134.40137,0.0744957700
3133.11572,0.0725803077
3131.83008,0.0707418546
3130.54443,0.0689021125
3129.25879,0.0670105070
3127.97314,0.0651191399
3126.68750,0.0633492917
3125.40186,0.0617616959
3124.11621,0.0602911599
3122.83057,0.0588279404
3121.54492,0.0573347956
3120.25928,0.0558529757
3118.97363,0.0544141382
3117.68799,0.0529954918
3116.40234,0.0515642911
3115.11670,0.0501350611
3113.83105,0.0487559326
3112.54541,0.0474460982
3111.25977,0.0461645611
3109.97412,0.0448426791
3108.68848,0.0434383713
3107.40283,0.0419586301
3106.11719,0.0404434279
3104.83154,0.0389398634
3103.54590,0.0374790728
3102.26025,0.0360583402
3100.97461,0.0346394889
3099.68896,0.0331693739
3098.40332,0.0316118076
3097.11768,0.0299719330
3095.83203,0.0282943211
3094.54639,0.0266314484
3093.26074,0.0250061769
3091.97510,0.0234078635
3090.68945,0.0218253192
3089.40381,0.0202751011
3088.11816,0.0187876448
3086.83252,0.0173751451
3085.54688,0.0160171278
3084.26123,0.0146815507
3082.97559,0.0133561278
3081.68994,0.0120593812
3080.40430,0.0108201550
3079.11865,0.0096584251
3077.83301,0.0085891867
3076.54736,0.0076233572
3075.26172,0.0067425319
3073.97607,0.0058915112
3072.69043,0.0050289310
3071.40479,0.0041806055
3070.11914,0.0034147799
3068.83350,0.0027633766
3067.54785,0.0021916947
3066.26221,0.0016450067
3064.97656,0.0011027172
3063.69092,0.0005781077
3062.40527,0.0000785969
3061.11963,-0.0004197710
3059.83398,-0.0009482543
3058.54834,-0.0015025634
3057.26270,-0.0020423562
3055.97705,-0.0025457609
3054.69141,-0.0030482740
3053.40576,-0.0036061748
3052.12012,-0.0042346814
3050.83447,-0.0049050264
3049.54883,-0.0055967239
3048.26318,-0.0063201836
3046.97754,-0.0070859375
3045.69189,-0.0078758197
3044.40625,-0.0086612199
3043.12061,-0.0094353249
3041.83496,-0.0102148792
3040.54932,-0.0110131260
3039.26367,-0.0118247215
3037.97803,-0.0126403347
3036.69238,-0.0134627502
3035.40674,-0.0142898737
3034.12109,-0.0150844222
3032.83545,-0.0157855209
3031.54980,-0.0163693409
3030.26416,-0.0168815665
3028.97852,-0.0173889101
3027.69287,-0.0179038644
3026.40723,-0.0183752272
3025.12158,-0.0187483132
3023.83594,-0.0190188121
3022.55029,-0.0192287695
3021.26465,-0.0194185264
3019.97900,-0.0195868202
3018.69336,-0.0196925160
3017.40771,-0.0196928121
3016.12207,-0.0195739046
3014.83643,-0.0193422772
3013.55078,-0.0190084539
3012.26514,-0.0185966082
3010.97949,-0.0181612838
3009.69385,-0.0177637395
3008.40820,-0.0174218882
3007.12256,-0.0170941036
3005.83691,-0.0167186465
3004.55127,-0.0162692145
3003.26563,-0.0157709438
3001.97998,-0.0152747501
3000.69434,-0.0148210200
2999.40869,-0.0144260647
2998.12305,-0.0140923988
2996.83740,-0.0138273397
2995.55176,-0.0136459116
2994.26611,-0.0135494722
2992.98047,-0.0135040060
2991.69482,-0.0134584336
2990.40918,-0.0133976452
2989.12354,-0.0133667737
2987.83789,-0.0134301241
2986.55225,-0.0136107886
2985.26660,-0.0138784405
2983.98096,-0.0141880652
2982.69531,-0.0145236105
2981.40967,-0.0149082718
2980.12402,-0.0153711066
2978.83838,-0.0159043223
2977.55273,-0.0164654534
2976.26709,-0.0170308352
2974.98145,-0.0176280439
2973.69580,-0.0183014777
2972.41016,-0.0190684628
2971.12451,-0.0199253913
2969.83887,-0.0208720230
2968.55322,-0.0218979772
2967.26758,-0.0229568202
2965.98193,-0.0239747297
2964.69629,-0.0248823762
2963.41064,-0.0256259274
2962.12500,-0.0261550471
2960.83936,-0.0264225826
2959.55371,-0.0263925716
2958.26807,-0.0260413066
2956.98242,-0.0253421795
2955.69678,-0.0242667664
2954.41113,-0.0228137020
2953.12549,-0.0210339874
2951.83984,-0.0190134607
2950.55420,-0.0168392844
2949.26855,-0.0146099208
2947.98291,-0.0124731986
2946.69727,-0.0106222192
2945.41162,-0.0092282305
2944.12598,-0.0083993236
2942.84033,-0.0082037756
2941.55469,-0.0086969975
2940.26904,-0.0098939035
2938.98340,-0.0117435995
2937.69775,-0.0141861644
2936.41211,-0.0172359329
2935.12646,-0.0209664032
2933.84082,-0.0253885239
2932.55518,-0.0303641837
2931.26953,-0.0356677957
2929.98389,-0.0411303192
2928.69824,-0.0467037074
2927.41260,-0.0523804761
2926.12695,-0.0580789372
2924.84131,-0.0636309832
2923.55566,-0.0688666254
2922.27002,-0.0736725330
2920.98438,-0.0779360905
2919.69873,-0.0814056769
2918.41309,-0.0835832208
2917.12744,-0.0838034526
2915.84180,-0.0815900341
2914.55615,-0.0770883933
2913.27051,-0.0711483955
2911.98486,-0.0649048164
2910.69922,-0.0592412315
2909.41357,-0.0545652285
2908.12793,-0.0509097464
2906.84229,-0.0481143408
2905.55664,-0.0459547453
2904.27100,-0.0442351587
2902.98535,-0.0428463668
2901.69971,-0.0417531133
2900.41406,-0.0409337059
2899.12842,-0.0403288454
2897.84277,-0.0398385003
2896.55713,-0.0393694937
2895.27148,-0.0388988480
2893.98584,-0.0384777710
2892.70020,-0.0381597690
2891.41455,-0.0379393212
2890.12891,-0.0377707332
2888.84326,-0.0376145579
2887.55762,-0.0374453664
2886.27197,-0.0372468866
2884.98633,-0.0370345786
2883.70068,-0.0368667319
2882.41504,-0.0368088000
2881.12939,-0.0368957371
2879.84375,-0.0371359698
2878.55811,-0.0375328474
2877.27246,-0.0380907692
2875.98682,-0.0388057269
2874.70117,-0.0396437570
2873.41553,-0.0405135192
2872.12988,-0.0412721448
2870.84424,-0.0418025814
2869.55859,-0.0421068370
2868.27295,-0.0423184223
2866.98730,-0.0426152386
2865.70166,-0.0431310982
2864.41602,-0.0439595729
2863.13037,-0.0452142470
2861.84473,-0.0470419452
2860.55908,-0.0495625436
2859.27344,-0.0528120734
2857.98779,-0.0567489602
2856.70215,-0.0612997264
2855.41650,-0.0663997605
2854.13086,-0.0720055625
2852.84521,-0.0779957026
2851.55957,-0.0838892907
2850.27393,-0.0885922536
2848.98828,-0.0906678960
2847.70264,-0.0892472416
2846.41699,-0.0848014280
2845.13135,-0.0788932294
2843.84570,-0.0731474981
2842.56006,-0.0684608594
2841.27441,-0.0649565384
2839.98877,-0.0623803586
2838.70313,-0.0604426824
2837.41748,-0.0589208007
2836.13184,-0.0576416068
2834.84619,-0.0564832054
2833.56055,-0.0554045923
2832.27490,-0.0544373207
2830.98926,-0.0536188260
2829.70361,-0.0529301539
2828.41797,-0.0522935465
2827.13232,-0.0516224951
2825.84668,-0.0508636981
2824.56104,-0.0500032268
2823.27539,-0.0490496866
2821.98975,-0.0480239689
2820.70410,-0.0469596684
2819.41846,-0.0458946638
2818.13281,-0.0448597744
2816.84717,-0.0438833460
2815.56152,-0.0430079363
2814.27588,-0.0422812738
2812.99023,-0.0417204276
2811.70459,-0.0412992574
2810.41895,-0.0409844406
2809.13330,-0.0407645777
2807.84766,-0.0406305566
2806.56201,-0.0405524299
2805.27637,-0.0405005515
2803.99072,-0.0404658839
2802.70508,-0.0404347554
2801.41943,-0.0403601229
2800.13379,-0.0401885025
2798.84814,-0.0398978703
2797.56250,-0.0394860357
2796.27686,-0.0389352962
2794.99121,-0.0382094160
2793.70557,-0.0372680798
2792.41992,-0.0360695794
2791.13428,-0.0345848799
2789.84863,-0.0328339413
2788.56299,-0.0308873672
2787.27734,-0.0288041458
2785.99170,-0.0265882816
2784.70605,-0.0242394507
2783.42041,-0.0218216721
2782.13477,-0.0194378346
2780.84912,-0.0171382483
2779.56348,-0.0148940133
2778.27783,-0.0126714613
2776.99219,-0.0104900347
2775.70654,-0.0083770314
2774.42090,-0.0062732892
2773.13525,-0.0040132431
2771.84961,-0.0014086020
2770.56396,0.0016410052
2769.27832,0.0051283757
2767.99268,0.0090292320
2766.70703,0.0134040993
2765.42139,0.0183801875
2764.13574,0.0240387712
2762.85010,0.0303648990
2761.56445,0.0373315439
2760.27881,0.0449809842
2758.99316,0.0533689409
2757.70752,0.0624830090
2756.42188,0.0723099858
2755.13623,0.0829716399
2753.85059,0.0947058797
2752.56494,0.1077171117
2751.27930,0.1221481487
2749.99365,0.1382391304
2748.70801,0.1564290375
2747.42236,0.1772380173
2746.13672,0.2010640502
2744.85107,0.2281489074
2743.56543,0.2587710321
2742.27979,0.2934882343
2740.99414,0.3331640065
2739.70850,0.3787579536
2738.42285,0.4311710596
2737.13721,0.4912335277
2735.85156,0.5598558784
2734.56592,0.6377369165
2733.28027,0.7261812091
2731.99463,0.8270591497
2730.70898,0.9440365434
2729.42334,1.0767357349
2728.13770,1.2298458815
2726.85205,1.3997557163
2725.56641,1.5767421722
2724.28076,1.6248788834
2722.99512,1.5812033415
2721.70947,1.4787091017
2720.42383,1.3707708120
2719.13818,1.3011375666
2717.85254,1.2459245920
2716.56689,1.2036119699
2715.28125,1.1762188673
2713.99561,1.1762444973
2712.70996,1.1804119349
2711.42432,1.1865563393
2710.13867,1.1928044558
2708.85303,1.1976344585
2707.56738,1.1995906830
2706.28174,1.2001489401
2704.99609,1.2009371519
2703.71045,1.2033220530
2702.42480,1.2082056999
2701.13916,1.2156606913
2699.85352,1.2247792482
2698.56787,1.2350960970
2697.28223,1.2463314533
2695.99658,1.2560522556
2694.71094,1.2597851753
2693.42529,1.2568168640
2692.13965,1.2515753508
2690.85400,1.2487211227
2689.56836,1.2463977337
2688.28271,1.2396483421
2686.99707,1.2267857790
2685.71143,1.2137929201
2684.42578,1.2071080208
2683.14014,1.2073398829
2681.85449,1.2088289261
2680.56885,1.2063341141
2679.28320,1.1998049021
2677.99756,1.1929862499
2676.71191,1.1878484488
2675.42627,1.1842601299
2674.14063,1.1820062399
2672.85498,1.1805711985
2671.56934,1.1768167019
2670.28369,1.1682533026
2668.99805,1.1572394371
2667.71240,1.1495190859
2666.42676,1.1464691162
2665.14111,1.1452701092
2663.85547,1.1427934170
2662.56982,1.1393382549
2661.28418,1.1365554333
2659.99854,1.1384116411
2658.71289,1.1485513449
2657.42725,1.1668829918
2656.14160,1.1862241030
2654.85596,1.1985322237
2653.57031,1.2029336691
2652.28467,1.2069886923
2650.99902,1.2178391218
2649.71338,1.2367638350
2648.42773,1.2598371506
2647.14209,1.2828631401
2645.85645,1.3048566580
2644.57080,1.3265653849
2643.28516,1.3477789164
2641.99951,1.3667668104
2640.71387,1.3808016777
2639.42822,1.3879741430
2638.14258,1.3889384270
2636.85693,1.3885188103
2635.57129,1.3901208639
2634.28564,1.3966577053
2633.00000,1.4087382555
2631.71436,1.4261109829
2630.42871,1.4429018497
2629.14307,1.4548749924
2627.85742,1.4611144066
2626.57178,1.4636434317
2625.28613,1.4620027542
2624.00049,1.4559782743
2622.71484,1.4480472803
2621.42920,1.4416971207
2620.14355,1.4352985620
2618.85791,1.4261015654
2617.57227,1.4151028395
2616.28662,1.4039582014
2615.00098,1.3894488811
2613.71533,1.3679724932
2612.42969,1.3437221050
2611.14404,1.3257113695
2609.85840,1.3155794144
2608.57275,1.3074918985
2607.28711,1.2967336178
2606.00146,1.2865874767
2604.71582,1.2815788984
2603.43018,1.2830964327
2602.14453,1.2890799046
2600.85889,1.2981675863
2599.57324,1.3073756695
2598.28760,1.3160502911
2597.00195,1.3256050348
2595.71631,1.3409177065
2594.43066,1.3678815365
2593.14502,1.4117161036
2591.85938,1.4693113565
2590.57373,1.5258587599
2589.28809,1.5659241676
2588.00244,1.5882997513
2586.71680,1.6060255766
2585.43115,1.6344441175
2584.14551,1.6772342920
2582.85986,1.7338180542
2581.57422,1.7938243151
2580.28857,1.8206852674
2579.00293,1.8263238668
2577.71729,1.8205941916
2576.43164,1.7945892811
2575.14600,1.7492134571
2573.86035,1.6831187010
2572.57471,1.6257764101
2571.28906,1.5995548964
2570.00342,1.6110694408
2568.71777,1.6511036158
2567.43213,1.7100257874
2566.14648,1.7775412798
2564.86084,1.8459323645
2563.57520,1.9190952778
2562.28955,2.0066623688
2561.00391,2.1136667728
2559.71826,2.2005326748
2558.43262,2.1829450130
2557.14697,2.0933122635
2555.86133,2.0078644753
2554.57568,1.9257587194
2553.29004,1.8385217190
2552.00439,1.7607015371
2550.71875,1.7025086880
2549.43311,1.6623742580
2548.14746,1.6267920732
2546.86182,1.5906326771
2545.57617,1.5607612133
2544.29053,1.5488340855
2543.00488,1.5608470440
2541.71924,1.5948001146
2540.43359,1.6421188116
2539.14795,1.6927746534
2537.86230,1.7274791002
2536.57666,1.7415198088
2535.29102,1.7528799772
2534.00537,1.7995519638
2532.71973,1.8758149147
2531.43408,1.9594496489
2530.14844,2.0066699982
2528.86279,2.0278813839
2527.57715,1.9969451427
2526.29150,1.9270110130
2525.00586,1.8625057936
2523.72021,1.8364940882
2522.43457,1.8130515814
2521.14893,1.7777036428
2519.86328,1.7316046953
2518.57764,1.6775847673
2517.29199,1.6163629293
2516.00635,1.5558313131
2514.72070,1.5112048388
2513.43506,1.4953689575
2512.14941,1.5037771463
2510.86377,1.5247966051
2509.57813,1.5502483845
2508.29248,1.5809023380
2507.00684,1.6128473282
2505.72119,1.6331347227
2504.43555,1.6355563402
2503.14990,1.6384625435
2501.86426,1.6547890902
2500.57861,1.6898026466
2499.29297,1.7433174849
2498.00732,1.8144598007
2496.72168,1.8882750273
2495.43604,1.9350333214
2494.15039,1.9269450903
2492.86475,1.8848015070
2491.57910,1.8217999935
2490.29346,1.7626430988
2489.00781,1.7228813171
2487.72217,1.7092036009
2486.43652,1.7111015320
2485.15088,1.7162909508
2483.86523,1.7125587463
2482.57959,1.7048139572
2481.29395,1.6938881874
2480.00830,1.6879789829
2478.72266,1.6930806637
2477.43701,1.7190047503
2476.15137,1.7573255301
2474.86572,1.8132717609
2473.58008,1.8886498213
2472.29443,1.9953198433
2471.00879,2.0586073399
2469.72314,2.0480370522
2468.43750,1.9838128090
2467.15186,1.8884942532
2465.86621,1.7906786203
2464.58057,1.7115592957
2463.29492,1.6581870317
2462.00928,1.6242030859
2460.72363,1.5988157988
2459.43799,1.5725425482
2458.15234,1.5401880741
2456.86670,1.5034351349
2455.58105,1.4686201811
2454.29541,1.4464001656
2453.00977,1.4440110922
2451.72412,1.4624820948
2450.43848,1.4926730394
2449.15283,1.5223305225
2447.86719,1.5406051874
2446.58154,1.5464829206
2445.29590,1.5488684177
2444.01025,1.5641213655
2442.72461,1.5994316339
2441.43896,1.6455504894
2440.15332,1.6834222078
2438.86768,1.7071695328
2437.58203,1.7268784046
2436.29639,1.7500219345
2435.01074,1.7789653540
2433.72510,1.8171409369
2432.43945,1.8521717787
2431.15381,1.8594270945
2429.86816,1.8241198063
2428.58252,1.7751942873
2427.29688,1.7421302795
2426.01123,1.7317979336
2424.72559,1.7221245766
2423.43994,1.6987384558
2422.15430,1.6656037569
2420.86865,1.6478791237
2419.58301,1.6556998491
2418.29736,1.6915440559
2417.01172,1.7437009811
2415.72607,1.8067274094
2414.44043,1.8485934734
2413.15479,1.8654553890
2411.86914,1.8653118610
2410.58350,1.8529227972
2409.29785,1.8265690804
2408.01221,1.7866700888
2406.72656,1.7433141470
2405.44092,1.7058205605
2404.15527,1.6757777929
2402.86963,1.6432347298
2401.58398,1.5994927883
2400.29834,1.5505268574
2399.01270,1.5060455799
2397.72705,1.4768905640
2396.44141,1.4632225037
2395.15576,1.4553642273
2393.87012,1.4447464943
2392.58447,1.4355818033
2391.29883,1.4393903017
2390.01318,1.4609239101
2388.72754,1.4903253317
2387.44189,1.5133367777
2386.15625,1.5246331692
2384.87061,1.5321438313
2383.58496,1.5465224981
2382.29932,1.5749998093
2381.01367,1.6199829578
2379.72803,1.6839665174
2378.44238,1.7712538242
2377.15674,1.8796653748
2375.87109,1.9872279167
2374.58545,2.0458137989
2373.29980,2.0301489830
2372.01416,1.9734796286
2370.72852,1.9101049900
2369.44287,1.8527963161
2368.15723,1.7961938381
2366.87158,1.7572145462
2365.58594,1.7465406656
2364.30029,1.7614465952
2363.01465,1.7767806053
2361.72900,1.7749364376
2360.44336,1.7569335699
2359.15771,1.7442926168
2357.87207,1.7457305193
2356.58643,1.7733730078
2355.30078,1.8254482746
2354.01514,1.8902999163
2352.72949,1.9254902601
2351.44385,1.9245640039
2350.15820,1.9151360989
2348.87256,1.9170137644
2347.58691,1.9162482023
2346.30127,1.8810882568
2345.01563,1.8060495853
2343.72998,1.7255822420
2342.44434,1.6595251560
2341.15869,1.6076573133
2339.87305,1.5687816143
2338.58740,1.5448477268
2337.30176,1.5357120037
2336.01611,1.5320382118
2334.73047,1.5200350285
2333.44482,1.4980151653
2332.15918,1.4766315222
2330.87354,1.4669349194
2329.58789,1.4707789421
2328.30225,1.4851728678
2327.01660,1.5081909895
2325.73096,1.5399335623
2324.44531,1.5772809982
2323.15967,1.6149820089
2321.87402,1.6492638588
2320.58838,1.6850638390
2319.30273,1.7326962948
2318.01709,1.8020422459
2316.73145,1.8940411806
2315.44580,1.9922583103
2314.16016,2.0714352131
2312.87451,2.0622200966
2311.58887,1.9911493063
2310.30322,1.9374607801
2309.01758,1.9000616074
2307.73193,1.8523373604
2306.44629,1.8084248304
2305.16064,1.7817014456
2303.87500,1.7679538727
2302.58936,1.7705464363
2301.30371,1.7674880028
2300.01807,1.7728105783
2298.73242,1.7936254740
2297.44678,1.8014386892
2296.16113,1.7907141447
2294.87549,1.7683010101
2293.58984,1.7407131195
2292.30420,1.7031127214
2291.01855,1.6511026621
2289.73291,1.5848058462
2288.44727,1.5143253803
2287.16162,1.4513303041
2285.87598,1.4016654491
2284.59033,1.3633415699
2283.30469,1.3306478262
2282.01904,1.2992208004
2280.73340,1.2665448189
2279.44775,1.2322039604
2278.16211,1.1971079111
2276.87646,1.1628031731
2275.59082,1.1289554834
2274.30518,1.0945117474
2273.01953,1.0590306520
2271.73389,1.0240926743
2270.44824,0.9918428659
2269.16260,0.9633609056
2267.87695,0.9372441769
2266.59131,0.9106805921
2265.30566,0.8819162250
2264.02002,0.8517408371
2262.73438,0.8224334717
2261.44873,0.7952773571
2260.16309,0.7695287466
2258.87744,0.7435343862
2257.59180,0.7166625261
2256.30615,0.6895942688
2255.02051,0.6630963087
2253.73486,0.6371250153
2252.44922,0.6112980843
2251.16357,0.5857822895
2249.87793,0.5611779094
2248.59229,0.5375216603
2247.30664,0.5139854550
2246.02100,0.4898902476
2244.73535,0.4656877518
2243.44971,0.4425279498
2242.16406,0.4209033847
2240.87842,0.4003013074
2239.59277,0.3801300824
2238.30713,0.3604178727
2237.02148,0.3413299322
2235.73584,0.3226298094
2234.45020,0.3039868772
2233.16455,0.2854996622
2231.87891,0.2675480843
2230.59326,0.2503390014
2229.30762,0.2338996828
2228.02197,0.2183239162
2226.73633,0.2037587315
2225.45068,0.1902244538
2224.16504,0.1776050329
2222.87939,0.1656991839
2221.59375,0.1542063355
2220.30811,0.1428040564
2219.02246,0.1313976198
2217.73682,0.1201895624
2216.45117,0.1094360501
2215.16553,0.0992151797
2213.87988,0.0894867480
2212.59424,0.0802556574
2211.30859,0.0715712830
2210.02295,0.0634090751
2208.73730,0.0556416325
2207.45166,0.0481430776
2206.16602,0.0408643074
2204.88037,0.0337959453
2203.59473,0.0269190222
2202.30908,0.0202625152
2201.02344,0.0139525440
2199.73779,0.0081021655
2198.45215,0.0026643150
2197.16650,-0.0025122529
2195.88086,-0.0075017191
2194.59521,-0.0122674480
2193.30957,-0.0167959556
2192.02393,-0.0211666971
2190.73828,-0.0254710391
2189.45264,-0.0297146756
2188.16699,-0.0338180214
2186.88135,-0.0376836322
2185.59570,-0.0412756279
2184.31006,-0.0446438231
2183.02441,-0.0478707962
2181.73877,-0.0510026067
2180.45313,-0.0540503934
2179.16748,-0.0570208617
2177.88184,-0.0599035993
2176.59619,-0.0626330301
2175.31055,-0.0651170313
2174.02490,-0.0673325434
2172.73926,-0.0693769157
2171.45361,-0.0713988766
2170.16797,-0.0734637603
2168.88232,-0.0754959062
2167.59668,-0.0773685724
2166.31104,-0.0790282488
2165.02539,-0.0805110037
2163.73975,-0.0818604603
2162.45410,-0.0830925703
2161.16846,-0.0842354372
2159.88281,-0.0853568539
2158.59717,-0.0865191594
2157.31152,-0.0877192616
2156.02588,-0.0888786912
2154.74023,-0.0898927823
2153.45459,-0.0907067209
2152.16895,-0.0913605392
2150.88330,-0.0919555724
2149.59766,-0.0925684497
2148.31201,-0.0931933671
2147.02637,-0.0937647521
2145.74072,-0.0942205414
2144.45508,-0.0945533141
2143.16943,-0.0948139131
2141.88379,-0.0950690508
2140.59814,-0.0953425914
2139.31250,-0.0955972448
2138.02686,-0.0957786217
2136.74121,-0.0958725959
2135.45557,-0.0959129035
2134.16992,-0.0959434137
2132.88428,-0.0959790647
2131.59863,-0.0959938392
2130.31299,-0.0959423706
2129.02734,-0.0958003476
2127.74170,-0.0955864936
2126.45605,-0.0953408852
2125.17041,-0.0950853899
2123.88477,-0.0948192403
2122.59912,-0.0945482701
2121.31348,-0.0942947865
2120.02783,-0.0940704420
2118.74219,-0.0938571915
2117.45654,-0.0936247557
2116.17090,-0.0933593586
2114.88525,-0.0930681229
2113.59961,-0.0927616358
2112.31396,-0.0924422666
2111.02832,-0.0921052247
2109.74268,-0.0917482749
2108.45703,-0.0913805887
2107.17139,-0.0910240859
2105.88574,-0.0906991139
2104.60010,-0.0904039145
2103.31445,-0.0901095122
2102.02881,-0.0897887126
2100.74316,-0.0894489884
2099.45752,-0.0891270339
2098.17188,-0.0888460800
2096.88623,-0.0885896683
2095.60059,-0.0883234069
2094.31494,-0.0880250633
2093.02930,-0.0876911730
2091.74365,-0.0873306245
2090.45801,-0.0869657844
2089.17236,-0.0866317675
2087.88672,-0.0863543749
2086.60107,-0.0861268044
2085.31543,-0.0859145895
2084.02979,-0.0856883600
2082.74414,-0.0854464620
2081.45850,-0.0852008909
2080.17285,-0.0849501193
2078.88721,-0.0846767128
2077.60156,-0.0843756273
2076.31592,-0.0840694308
2075.03027,-0.0837903470
2073.74463,-0.0835562274
2072.45898,-0.0833652318
2071.17334,-0.0831969678
2069.88770,-0.0830165893
2068.60205,-0.0827961192
2067.31641,-0.0825390816
2066.03076,-0.0822766572
2064.74512,-0.0820393115
2063.45947,-0.0818391070
2062.17383,-0.0816693231
2060.88818,-0.0815049857
2059.60254,-0.0813107565
2058.31689,-0.0810660198
2057.03125,-0.0807859451
2055.74561,-0.0805049092
2054.45996,-0.0802442208
2053.17432,-0.0800000727
2051.88867,-0.0797573626
2050.60303,-0.0795088187
2049.31738,-0.0792631879
2048.03174,-0.0790348575
2046.74609,-0.0788260922
2045.46045,-0.0786239728
2044.17480,-0.0784202069
2042.88916,-0.0782237649
2041.60352,-0.0780406520
2040.31787,-0.0778513104
2039.03223,-0.0776219442
2037.74658,-0.0773353800
2036.46094,-0.0770034641
2035.17529,-0.0766545683
2033.88965,-0.0763188303
2032.60400,-0.0760153234
2031.31836,-0.0757387951
2030.03271,-0.0754605681
2028.74707,-0.0751504600
2027.46143,-0.0748018250
2026.17578,-0.0744361654
2024.89014,-0.0740836859
2023.60449,-0.0737579092
2022.31885,-0.0734415129
2021.03320,-0.0731005594
2019.74756,-0.0727206692
2018.46191,-0.0723330900
2017.17627,-0.0719912127
2015.89063,-0.0717176497
2014.60498,-0.0714802667
2013.31934,-0.0712292120
2012.03369,-0.0709467083
2010.74805,-0.0706546232
2009.46240,-0.0703785717
2008.17676,-0.0701197088
2006.89111,-0.0698657557
2005.60547,-0.0696164146
2004.31982,-0.0693896636
2003.03418,-0.0692024380
2001.74854,-0.0690498874
2000.46289,-0.0689126924
1999.17725,-0.0687781647
1997.89160,-0.0686422214
1996.60596,-0.0684899539
1995.32031,-0.0682952106
1994.03467,-0.0680582076
1992.74902,-0.0678295344
1991.46338,-0.0676687434
1990.17773,-0.0675838068
1988.89209,-0.0675329864
1987.60645,-0.0674787313
1986.32080,-0.0674154460
1985.03516,-0.0673471242
1983.74951,-0.0672688261
1982.46387,-0.0671783984
1981.17822,-0.0670867115
1979.89258,-0.0670040101
1978.60693,-0.0669277832
1977.32129,-0.0668481588
1976.03564,-0.0667603612
1974.75000,-0.0666685402
1973.46436,-0.0665789619
1972.17871,-0.0664888397
1970.89307,-0.0663829148
1969.60742,-0.0662453249
1968.32178,-0.0660827160
1967.03613,-0.0659275502
1965.75049,-0.0658116639
1964.46484,-0.0657373592
1963.17920,-0.0656791031
1961.89355,-0.0656115711
1960.60791,-0.0655264705
1959.32227,-0.0654229000
1958.03662,-0.0652973056
1956.75098,-0.0651506335
1955.46533,-0.0650052130
1954.17969,-0.0648945123
1952.89404,-0.0648287013
1951.60840,-0.0647769272
1950.32275,-0.0646927580
1949.03711,-0.0645570531
1947.75146,-0.0643841475
1946.46582,-0.0641901121
1945.18018,-0.0639800653
1943.89453,-0.0637786090
1942.60889,-0.0636420771
1941.32324,-0.0636056215
1940.03760,-0.0636331290
1938.75195,-0.0636486411
1937.46631,-0.0636069253
1936.18066,-0.0635079518
1934.89502,-0.0633689985
1933.60938,-0.0632134005
1932.32373,-0.0630749390
1931.03809,-0.0629787147
1929.75244,-0.0629193708
1928.46680,-0.0628702268
1927.18115,-0.0627981499
1925.89551,-0.0626743063
1924.60986,-0.0625034347
1923.32422,-0.0623387396
1922.03857,-0.0622274950
1920.75293,-0.0621471815
1919.46729,-0.0620496757
1918.18164,-0.0619556382
1916.89600,-0.0619385429
1915.61035,-0.0620117038
1914.32471,-0.0620956682
1913.03906,-0.0621097647
1911.75342,-0.0620461255
1910.46777,-0.0619540736
1909.18213,-0.0618876778
1907.89648,-0.0618802160
1906.61084,-0.0619339608
1905.32520,-0.0620248541
1904.03955,-0.0621252842
1902.75391,-0.0622209385
1901.46826,-0.0623073392
1900.18262,-0.0623820983
1898.89697,-0.0624442957
1897.61133,-0.0624987669
1896.32568,-0.0625592396
1895.04004,-0.0626411811
1893.75439,-0.0627378970
1892.46875,-0.0628195107
1891.18311,-0.0628816932
1889.89746,-0.0629783571
1888.61182,-0.0631638020
1887.32617,-0.0634133294
1886.04053,-0.0636476204
1884.75488,-0.0638295189
1883.46924,-0.0639935732
1882.18359,-0.0641834065
1880.89795,-0.0643991455
1879.61230,-0.0646124110
1878.32666,-0.0648038611
1877.04102,-0.0649781972
1875.75537,-0.0651512146
1874.46973,-0.0653186813
1873.18408,-0.0654377267
1871.89844,-0.0654597208
1870.61279,-0.0654009357
1869.32715,-0.0653644726
1868.04150,-0.0654699653
1866.75586,-0.0657487065
1865.47021,-0.0661165044
1864.18457,-0.0664488971
1862.89893,-0.0666710660
1861.61328,-0.0667878315
1860.32764,-0.0668580979
1859.04199,-0.0669471249
1857.75635,-0.0670831576
1856.47070,-0.0672388896
1855.18506,-0.0673632547
1853.89941,-0.0674313083
1852.61377,-0.0674529001
1851.32813,-0.0674433261
1850.04248,-0.0674033836
1848.75684,-0.0673218146
1847.47119,-0.0671873614
1846.18555,-0.0670213252
1844.89990,-0.0669125989
1843.61426,-0.0669703856
1842.32861,-0.0672076270
1841.04297,-0.0675078928
1839.75732,-0.0677405074
1838.47168,-0.0678750649
1837.18604,-0.0679678991
1835.90039,-0.0680734813
1834.61475,-0.0681865066
1833.32910,-0.0682602674
1832.04346,-0.0682726577
1830.75781,-0.0682762340
1829.47217,-0.0683575869
1828.18652,-0.0685408860
1826.90088,-0.0687725097
1825.61523,-0.0690118670
1824.32959,-0.0692849383
1823.04395,-0.0696223751
1821.75830,-0.0699901730
1820.47266,-0.0703166127
1819.18701,-0.0705670565
1817.90137,-0.0707723871
1816.61572,-0.0709868520
1815.33008,-0.0712234154
1814.04443,-0.0714442059
1812.75879,-0.0716251656
1811.47314,-0.0718094483
1810.18750,-0.0720674545
1808.90186,-0.0724138990
1807.61621,-0.0727920532
1806.33057,-0.0731289983
1805.04492,-0.0733793378
1803.75928,-0.0735373273
1802.47363,-0.0736463219
1801.18799,-0.0737865716
1799.90234,-0.0740162730
1798.61670,-0.0743172914
1797.33105,-0.0746119022
1796.04541,-0.0748286694
1794.75977,-0.0749593824
1793.47412,-0.0750748962
1792.18848,-0.0752883926
1790.90283,-0.0756606907
1789.61719,-0.0761263520
1788.33154,-0.0765423849
1787.04590,-0.0768270791
1785.76025,-0.0770200714
1784.47461,-0.0772017464
1783.18896,-0.0773991570
1781.90332,-0.0776045769
1780.61768,-0.0778398514
1779.33203,-0.0781320482
1778.04639,-0.0784367472
1776.76074,-0.0786418468
1775.47510,-0.0786738172
1774.18945,-0.0785866529
1772.90381,-0.0785333216
1771.61816,-0.0786350295
1770.33252,-0.0788830817
1769.04688,-0.0791896284
1767.76123,-0.0795019194
1766.47559,-0.0798108280
1765.18994,-0.0800721198
1763.90430,-0.0802195594
1762.61865,-0.0802701712
1761.33301,-0.0803275257
1760.04736,-0.0804640353
1758.76172,-0.0806792825
1757.47607,-0.0809827745
1756.19043,-0.0814018548
1754.90479,-0.0818747804
1753.61914,-0.0822426304
1752.33350,-0.0824101120
1751.04785,-0.0824603066
1749.76221,-0.0825651512
1748.47656,-0.0828084424
1747.19092,-0.0831339508
1745.90527,-0.0834423825
1744.61963,-0.0836838335
1743.33398,-0.0838543698
1742.04834,-0.0839634165
1740.76270,-0.0840398744
1739.47705,-0.0841220841
1738.19141,-0.0841845274
1736.90576,-0.0841269866
1735.62012,-0.0839213356
1734.33447,-0.0837283507
1733.04883,-0.0837610215
1731.76318,-0.0840466172
1730.47754,-0.0844325349
1729.19189,-0.0847900957
1727.90625,-0.0850936994
1726.62061,-0.0853435844
1725.33496,-0.0855320245
1724.04932,-0.0856744647
1722.76367,-0.0857725590
1721.47803,-0.0857599750
1720.19238,-0.0855765268
1718.90674,-0.0853034630
1717.62109,-0.0851485953
1716.33545,-0.0852647200
1715.04980,-0.0856212527
1713.76416,-0.0860676095
1712.47852,-0.0864760578
1711.19287,-0.0867888257
1709.90723,-0.0869667232
1708.62158,-0.0869731978
1707.33594,-0.0868421867
1706.05029,-0.0866781622
1704.76465,-0.0865091011
1703.47900,-0.0862072110
1702.19336,-0.0856808797
1700.90771,-0.0850865096
1699.62207,-0.0846865401
1698.33643,-0.0845191777
1697.05078,-0.0843982324
1695.76514,-0.0842132270
1694.47949,-0.0839886367
1693.19385,-0.0836404487
1691.90820,-0.0829020068
1690.62256,-0.0815340877
1689.33691,-0.0794062093
1688.05127,-0.0763053223
1686.76563,-0.0718939230
1685.47998,-0.0661283806
1684.19434,-0.0597749986
1682.90869,-0.0543344542
1681.62305,-0.0512118414
1680.33740,-0.0508557372
1679.05176,-0.0526102297
1677.76611,-0.0552738309
1676.48047,-0.0578254946
1675.19482,-0.0597762614
1673.90918,-0.0610262118
1672.62354,-0.0615886487
1671.33789,-0.0615323968
1670.05225,-0.0610696673
1668.76660,-0.0604950637
1667.48096,-0.0599497892
1666.19531,-0.0593208633
1664.90967,-0.0584323332
1663.62402,-0.0572786145
1662.33838,-0.0560215972
1661.05273,-0.0548076630
1659.76709,-0.0536432527
1658.48145,-0.0524113998
1657.19580,-0.0509441420
1655.91016,-0.0491545536
1654.62451,-0.0472256914
1653.33887,-0.0456192456
1652.05322,-0.0446806774
1650.76758,-0.0442258529
1649.48193,-0.0437351204
1648.19629,-0.0429290161
1646.91064,-0.0419850275
1645.62500,-0.0412200280
1644.33936,-0.0407020263
1643.05371,-0.0402478240
1641.76807,-0.0396698900
1640.48242,-0.0389032029
1639.19678,-0.0379668325
1637.91113,-0.0369402952
1636.62549,-0.0359777100
1635.33984,-0.0352299213
1634.05420,-0.0346662961
1632.76855,-0.0340149589
1631.48291,-0.0329317562
1630.19727,-0.0312156081
1628.91162,-0.0288479459
1627.62598,-0.0258526206
1626.34033,-0.0221531391
1625.05469,-0.0175797194
1623.76904,-0.0119749326
1622.48340,-0.0052184039
1621.19775,0.0028893002
1619.91211,0.0126908785
1618.62646,0.0244583115
1617.34082,0.0379535854
1616.05518,0.0520925634
1614.76953,0.0649850518
1613.48389,0.0742660016
1612.19824,0.0775866434
1610.91260,0.0734448209
1609.62695,0.0621416904
1608.34131,0.0458918698
1607.05566,0.0277164374
1605.77002,0.0100943632
1604.48438,-0.0056301490
1603.19873,-0.0190608818
1601.91309,-0.0302939806
1600.62744,-0.0395664424
1599.34180,-0.0470968597
1598.05615,-0.0530772023
1596.77051,-0.0577345826
1595.48486,-0.0613564067
1594.19922,-0.0642179325
1592.91357,-0.0664939508
1591.62793,-0.0682705343
1590.34229,-0.0696236044
1589.05664,-0.0706479698
1587.77100,-0.0714130625
1586.48535,-0.0719320849
1585.19971,-0.0721951798
1583.91406,-0.0722105801
1582.62842,-0.0719957799
1581.34277,-0.0715353191
1580.05713,-0.0707714260
1578.77148,-0.0696682408
1577.48584,-0.0683039799
1576.20020,-0.0668665394
1574.91455,-0.0654879957
1573.62891,-0.0640912130
1572.34326,-0.0624868013
1571.05762,-0.0606372356
1569.77197,-0.0587298647
1568.48633,-0.0569483936
1567.20068,-0.0552690886
1565.91504,-0.0535419472
1564.62939,-0.0516531616
1563.34375,-0.0495045260
1562.05811,-0.0469815508
1560.77246,-0.0441262424
1559.48682,-0.0412980840
1558.20117,-0.0389567837
1556.91553,-0.0372221321
1555.62988,-0.0357927233
1554.34424,-0.0343016163
1553.05859,-0.0325945839
1551.77295,-0.0307056960
1550.48730,-0.0287208539
1549.20166,-0.0266843028
1547.91602,-0.0245567504
1546.63037,-0.0222485233
1545.34473,-0.0197241791
1544.05908,-0.0170394965
1542.77344,-0.0142598152
1541.48779,-0.0114297541
1540.20215,-0.0086640613
1538.91650,-0.0061154272
1537.63086,-0.0037491950
1536.34521,-0.0012856117
1535.05957,0.0015146376
1533.77393,0.0046020234
1532.48828,0.0077672475
1531.20264,0.0109513830
1529.91699,0.0143055357
1528.63135,0.0179581977
1527.34570,0.0218522958
1526.06006,0.0258671194
1524.77441,0.0300226603
1523.48877,0.0344503783
1522.20313,0.0391585901
1520.91748,0.0439701639
1519.63184,0.0487680398
1518.34619,0.0536833368
1517.06055,0.0589385964
1515.77490,0.0646203533
1514.48926,0.0707062781
1513.20361,0.0772073120
1511.91797,0.0841774121
1510.63232,0.0916394740
1509.34668,0.0995569676
1508.06104,0.1077987999
1506.77539,0.1161268502
1505.48975,0.1243741438
1504.20410,0.1327006072
1502.91846,0.1415456086
1501.63281,0.1512807608
1500.34717,0.1619612277
1499.06152,0.1733781844
1497.77588,0.1852654815
1496.49023,0.1974420249
1495.20459,0.2098666281
1493.91895,0.2226653844
1492.63330,0.2360720336
1491.34766,0.2502370775
1490.06201,0.2650634348
1488.77637,0.2802663445
1487.49072,0.2955985665
1486.20508,0.3109834790
1484.91943,0.3264691830
1483.63379,0.3421078026
1482.34814,0.3578408062
1481.06250,0.3734638393
1479.77686,0.3887210190
1478.49121,0.4033876956
1477.20557,0.4172106981
1475.91992,0.4299549460
1474.63428,0.4417170286
1473.34863,0.4530362487
1472.06299,0.4643932581
1470.77734,0.4756749272
1469.49170,0.4863997996
1468.20605,0.4963384867
1466.92041,0.5056349039
1465.63477,0.5144736767
1464.34912,0.5229573846
1463.06348,0.5312584639
1461.77783,0.5395832658
1460.49219,0.5478715897
1459.20654,0.5556297302
1457.92090,0.5621385574
1456.63525,0.5669270754
1455.34961,0.5701186657
1454.06396,0.5722464919
1452.77832,0.5737131834
1451.49268,0.5744820237
1450.20703,0.5741937160
1448.92139,0.5724190474
1447.63574,0.5688595176
1446.35010,0.5635076165
1445.06445,0.5566830635
1443.77881,0.5488214493
1442.49316,0.5402324796
1441.20752,0.5310872793
1439.92188,0.5214973688
1438.63623,0.5114568472
1437.35059,0.5007962584
1436.06494,0.4893530607
1434.77930,0.4771555960
1433.49365,0.4643304050
1432.20801,0.4508930445
1430.92236,0.4367714822
1429.63672,0.4220337272
1428.35107,0.4069927335
1427.06543,0.3920228183
1425.77979,0.3773237467
1424.49414,0.3629211485
1423.20850,0.3488356471
1421.92285,0.3351267576
1420.63721,0.3217593133
1419.35156,0.3085694015
1418.06592,0.2954438627
1416.78027,0.2824679911
1415.49463,0.2698339820
1414.20898,0.2576758862
1412.92334,0.2460314631
1411.63770,0.2348979861
1410.35205,0.2242824733
1409.06641,0.2142111212
1407.78076,0.2046897709
1406.49512,0.1956498474
1405.20947,0.1869790703
1403.92383,0.1786350012
1402.63818,0.1706920415
1401.35254,0.1632385254
1400.06689,0.1562574208
1398.78125,0.1496374309
1397.49561,0.1432628036
1396.20996,0.1370590180
1394.92432,0.1309918165
1393.63867,0.1251001507
1392.35303,0.1195258573
1391.06738,0.1144327149
1389.78174,0.1098502576
1388.49609,0.1056130007
1387.21045,0.1014692411
1385.92480,0.0972441211
1384.63916,0.0928917676
1383.35352,0.0884184539
1382.06787,0.0838130340
1380.78223,0.0790826455
1379.49658,0.0743434653
1378.21094,0.0698329583
1376.92529,0.0657846630
1375.63965,0.0622693077
1374.35400,0.0591669567
1373.06836,0.0562955514
1371.78271,0.0535415560
1370.49707,0.0508642197
1369.21143,0.0482273586
1367.92578,0.0456003733
1366.64014,0.0430229641
1365.35449,0.0405963399
1364.06885,0.0383667089
1362.78320,0.0362556987
1361.49756,0.0341487303
1360.21191,0.0320233181
1358.92627,0.0299479943
1357.64063,0.0279809050
1356.35498,0.0261177309
1355.06934,0.0243209377
1353.78369,0.0225615390
1352.49805,0.0208371039
1351.21240,0.0191740543
1349.92676,0.0176063478
1348.64111,0.0161362085
1347.35547,0.0147242080
1346.06982,0.0133328503
1344.78418,0.0119770160
1343.49854,0.0107170632
1342.21289,0.0095901443
1340.92725,0.0085476320
1339.64160,0.0074740630
1338.35596,0.0062852041
1337.07031,0.0050022993
1335.78467,0.0037219715
1334.49902,0.0025272605
1333.21338,0.0014401176
1331.92773,0.0004408287
1330.64209,-0.0004937787
1329.35645,-0.0013749030
1328.07080,-0.0022126262
1326.78516,-0.0030170667
1325.49951,-0.0037771161
1324.21387,-0.0044476544
1322.92822,-0.0049861046
1321.64258,-0.0054100337
1320.35693,-0.0057966681
1319.07129,-0.0062148063
1317.78564,-0.0066668037
1316.50000,-0.0071074828
1315.21436,-0.0075060427
1313.92871,-0.0078736832
1312.64307,-0.0082320217
1311.35742,-0.0085731605
1310.07178,-0.0088665057
1308.78613,-0.0090980055
1307.50049,-0.0092813438
1306.21484,-0.0094269672
1304.92920,-0.0095165754
1303.64355,-0.0095212841
1302.35791,-0.0094351228
1301.07227,-0.0092796711
1299.78662,-0.0090810722
1298.50098,-0.0088482937
1297.21533,-0.0085745817
1295.92969,-0.0082488367
1294.64404,-0.0078598540
1293.35840,-0.0073976964
1292.07275,-0.0068610064
1290.78711,-0.0062584397
1289.50146,-0.0055912556
1288.21582,-0.0048378077
1286.93018,-0.0039664591
1285.64453,-0.0029592742
1284.35889,-0.0018121664
1283.07324,-0.0005210307
1281.78760,0.0009243354
1280.50195,0.0025437945
1279.21631,0.0043844646
1277.93066,0.0065315450
1276.64502,0.0090837330
1275.35938,0.0121026328
1274.07373,0.0155865587
1272.78809,0.0195144508
1271.50244,0.0239292681
1270.21680,0.0289689265
1268.93115,0.0348140970
1267.64551,0.0416285917
1266.35986,0.0495736711
1265.07422,0.0588491634
1263.78857,0.0697100684
1262.50293,0.0824495703
1261.21729,0.0973875374
1259.93164,0.1148404256
1258.64600,0.1351386458
1257.36035,0.1587035805
1256.07471,0.1861337423
1254.78906,0.2181477100
1253.50342,0.2554245889
1252.21777,0.2984631062
1250.93213,0.3476265967
1249.64648,0.4033849239
1248.36084,0.4664754570
1247.07520,0.5376226306
1245.78955,0.6169487238
1244.50391,0.7040363550
1243.21826,0.7985667586
1241.93262,0.9005354047
1240.64697,1.0092408657
1239.36133,1.1232190132
1238.07568,1.2406376600
1236.79004,1.3584049940
1235.50439,1.4683378935
1234.21875,1.5601116419
1232.93311,1.6287807226
1231.64746,1.6792854071
1230.36182,1.7132697105
1229.07617,1.7283487320
1227.79053,1.7255417109
1226.50488,1.7131272554
1225.21924,1.6969997883
1223.93359,1.6786152124
1222.64795,1.6601101160
1221.36230,1.6443496943
1220.07666,1.6342896223
1218.79102,1.6293267012
1217.50537,1.6278135777
1216.21973,1.6279375553
1214.93408,1.6336722374
1213.64844,1.6508929729
1212.36279,1.6896766424
1211.07715,1.7446346283
1209.79150,1.8078588247
1208.50586,1.8705431223
1207.22021,1.9338537455
1205.93457,1.9826489687
1204.64893,2.0030925274
1203.36328,1.9878073931
1202.07764,1.9537163973
1200.79199,1.9102120399
1199.50635,1.8643124104
1198.22070,1.8146429062
1196.93506,1.8118680716
1195.64941,1.8281638622
1194.36377,1.8617149591
1193.07813,1.9139859676
1191.79248,2.1252911091
1190.50684,2.4831855297
1189.22119,3.1485829353
1187.93555,3.3342747688
1186.64990,2.4242904186
1185.36426,2.0329029560
1184.07861,1.7655769587
1182.79297,1.5634075403
1181.50732,1.3957630396
1180.22168,1.2575665712
1178.93604,1.1373394728
1177.65039,1.0304924250
1176.36475,0.9354874492
1175.07910,0.8516693711
1173.79346,0.7769644260
1172.50781,0.7096241117
1171.22217,0.6486707330
1169.93652,0.5934035778
1168.65088,0.5430846810
1167.36523,0.4973052442
1166.07959,0.4561090171
1164.79395,0.4195072353
1163.50830,0.3870115876
1162.22266,0.3576990366
1160.93701,0.3306736946
1159.65137,0.3054617941
1158.36572,0.2820557058
1157.08008,0.2606360912
1155.79443,0.2412696332
1154.50879,0.2238165885
1153.22314,0.2080151737
1151.93750,0.1935739964
1150.65186,0.1802512705
1149.36621,0.1679318398
1148.08057,0.1566192806
1146.79492,0.1463184655
1145.50928,0.1369365007
1144.22363,0.1283300817
1142.93799,0.1204104349
1141.65234,0.1131569818
1140.36670,0.1065487936
1139.08105,0.1005263329
1137.79541,0.0950158238
1136.50977,0.0899414420
1135.22412,0.0852196589
1133.93848,0.0807904750
1132.65283,0.0766741633
1131.36719,0.0729346201
1130.08154,0.0695542097
1128.79590,0.0663870201
1127.51025,0.0632847771
1126.22461,0.0602391213
1124.93896,0.0573681071
1123.65332,0.0547893681
1122.36768,0.0525350012
1121.08203,0.0505624190
1119.79639,0.0488037243
1118.51074,0.0471977964
1117.22510,0.0456920452
1115.93945,0.0442417674
1114.65381,0.0428304821
1113.36816,0.0414908640
1112.08252,0.0402721949
1110.79688,0.0391792133
1109.51123,0.0381639004
1108.22559,0.0371858925
1106.93994,0.0362516120
1105.65430,0.0353799686
1104.36865,0.0345596820
1103.08301,0.0337511189
1101.79736,0.0329215862
1100.51172,0.0320630260
1099.22607,0.0311830249
1097.94043,0.0302923694
1096.65479,0.0294079073
1095.36914,0.0285605751
1094.08350,0.0277829673
1092.79785,0.0270790104
1091.51221,0.0264204517
1090.22656,0.0257757474
1088.94092,0.0251205619
1087.65527,0.0244196430
1086.36963,0.0236408785
1085.08398,0.0228071436
1083.79834,0.0220005158
1082.51270,0.0212791376
1081.22705,0.0206094142
1079.94141,0.0199099872
1078.65576,0.0191518143
1077.37012,0.0183901545
1076.08447,0.0177020039
1074.79883,0.0171147175
1073.51318,0.0166038442
1072.22754,0.0161471441
1070.94189,0.0157468542
1069.65625,0.0153868953
1068.37061,0.0149956951
1067.08496,0.0144913485
1065.79932,0.0138715291
1064.51367,0.0132391946
1063.22803,0.0127282217
1061.94238,0.0124051925
1060.65674,0.0122285523
1059.37109,0.0121001313
1058.08545,0.0119586298
1056.79980,0.0118276021
1055.51416,0.0117719034
1054.22852,0.0118234521
1052.94287,0.0119632334
1051.65723,0.0121540064
1050.37158,0.0123652946
1049.08594,0.0125823589
1047.80029,0.0128214462
1046.51465,0.0131228007
1045.22900,0.0135065774
1043.94336,0.0139581040
1042.65771,0.0144767091
1041.37207,0.0151057281
1040.08643,0.0158647317
1038.80078,0.0166720562
1037.51514,0.0174002033
1036.22949,0.0180089753
1034.94385,0.0185809918
1033.65820,0.0192135274
1032.37256,0.0199329145
1031.08691,0.0207318515
1029.80127,0.0216286983
1028.51563,0.0226400197
1027.22998,0.0237229187
1025.94434,0.0247901045
1024.65869,0.0257690437
1023.37305,0.0266352184
1022.08740,0.0274177194
1020.80176,0.0281905066
1019.51611,0.0290151946
1018.23047,0.0298675187
1016.94482,0.0306584295
1015.65918,0.0313406698
1014.37354,0.0319512561
1013.08789,0.0325322673
1011.80225,0.0330654494
1010.51660,0.0335199162
1009.23096,0.0339118019
1007.94531,0.0342735350
1006.65967,0.0345929824
1005.37402,0.0348343812
1004.08838,0.0350053646
1002.80273,0.0351635888
1001.51709,0.0353511274
1000.23145,0.0355438069
998.94580,0.0356688723
997.66016,0.0356590636
996.37451,0.0354941711
995.08887,0.0352115333
993.80322,0.0348850638
992.51758,0.0345891975
991.23193,0.0343769081
989.94629,0.0342764445
988.66064,0.0342733935
987.37500,0.0342957452
986.08936,0.0342600569
984.80371,0.0341637693
983.51807,0.0341007076
982.23242,0.0341636278
980.94678,0.0343532041
979.66113,0.0346032679
978.37549,0.0348590612
977.08984,0.0351058245
975.80420,0.0353513509
974.51855,0.0356265530
973.23291,0.0359824598
971.94727,0.0364526883
970.66162,0.0370234624
969.37598,0.0376629345
968.09033,0.0383672230
966.80469,0.0391538329
965.51904,0.0400194675
964.23340,0.0409215018
962.94775,0.0418005884
961.66211,0.0426203758
960.37646,0.0434043817
959.09082,0.0442350842
957.80518,0.0451898463
956.51953,0.0462719873
955.23389,0.0474322103
953.94824,0.0486436039
952.66260,0.0499048457
951.37695,0.0511849038
950.09131,0.0524438582
948.80566,0.0537124798
947.52002,0.0550734922
946.23438,0.0565409698
944.94873,0.0580278076
943.66309,0.0594454110
942.37744,0.0607765391
941.09180,0.0620470829
939.80615,0.0633028373
938.52051,0.0646274462
937.23486,0.0661021471
935.94922,0.0677013248
934.66357,0.0692746565
933.37793,0.0706764832
932.09229,0.0718988329
930.80664,0.0730576590
929.52100,0.0742601380
928.23535,0.0755136535
926.94971,0.0767660588
925.66406,0.0779994875
924.37842,0.0792422965
923.09277,0.0805073455
921.80713,0.0817630291
920.52148,0.0829739869
919.23584,0.0841333941
917.95020,0.0852511302
916.66455,0.0863397568
915.37891,0.0874207690
914.09326,0.0885205120
912.80762,0.0896563232
911.52197,0.0908287764
910.23633,0.0920152739
908.95068,0.0931733176
907.66504,0.0942769572
906.37939,0.0953548774
905.09375,0.0964724645
903.80811,0.0976582915
902.52246,0.0988630205
901.23682,0.1000048593
899.95117,0.1010511220
