3999.64014,0.0007865062
3998.35449,0.0011355735
3997.06885,0.0011221557
3995.78320,0.0007472975
3994.49756,0.0002910299
3993.21191,0.0000226508
3991.92627,0.0000258867
3990.64063,0.0002591441
3989.35498,0.0006507687
3988.06934,0.0010908835
3986.78369,0.0014186654
3985.49805,0.0014875969
3984.21240,0.0012597541
3982.92676,0.0008600841
3981.64111,0.0005482483
3980.35547,0.0005587714
3979.06982,0.0008978244
3977.78418,0.0013170800
3976.49854,0.0015410044
3975.21289,0.0014991820
3973.92725,0.0013029036
3972.64160,0.0010691111
3971.35596,0.0008441070
3970.07031,0.0006799092
3968.78467,0.0006700832
3967.49902,0.0008697069
3966.21338,0.0011798529
3964.92773,0.0013442918
3963.64209,0.0011397520
3962.35645,0.0006264260
3961.07080,0.0001484296
3959.78516,-0.0000391896
3958.49951,-0.0000406908
3957.21387,-0.0000825166
3955.92822,-0.0001802842
3954.64258,-0.0002549020
3953.35693,-0.0004440280
3952.07129,-0.0010475831
3950.78564,-0.0021088752
3949.50000,-0.0031526748
3948.21436,-0.0034837022
3946.92871,-0.0029117591
3945.64307,-0.0020115923
3944.35742,-0.0014215545
3943.07178,-0.0011610372
3941.78613,-0.0007975387
3940.50049,-0.0001251665
3939.21484,0.0005741419
3937.92920,0.0009392001
3936.64355,0.0007956347
3935.35791,0.0000520339
3934.07227,-0.0013388790
3932.78662,-0.0031802231
3931.50098,-0.0048411363
3930.21533,-0.0055014980
3928.92969,-0.0049518631
3927.64404,-0.0039099725
3926.35840,-0.0032894730
3925.07275,-0.0033525135
3923.78711,-0.0035476394
3922.50146,-0.0032719518
3921.21582,-0.0027513318
3919.93018,-0.0027320399
3918.64453,-0.0034607959
3917.35889,-0.0042694411
3916.07324,-0.0041223872
3914.78760,-0.0026964883
3913.50195,-0.0006759776
3912.21631,0.0010419685
3910.93066,0.0019710229
3909.64502,0.0020020467
3908.35938,0.0010810482
3907.07373,-0.0009927821
3905.78809,-0.0043912814
3904.50244,-0.0087121688
3903.21680,-0.0125991469
3901.93115,-0.0145563530
3900.64551,-0.0143370116
3899.35986,-0.0126047302
3898.07422,-0.0099501228
3896.78857,-0.0071651344
3895.50293,-0.0053569060
3894.21729,-0.0052666389
3892.93164,-0.0067346063
3891.64600,-0.0084700547
3890.36035,-0.0086613223
3889.07471,-0.0070396885
3887.78906,-0.0052957926
3886.50342,-0.0049306722
3885.21777,-0.0060447706
3883.93213,-0.0075142873
3882.64648,-0.0082556410
3881.36084,-0.0081866551
3880.07520,-0.0074622803
3878.78955,-0.0060880641
3877.50391,-0.0046447474
3876.21826,-0.0040964363
3874.93262,-0.0048680650
3873.64697,-0.0066000619
3872.36133,-0.0085737184
3871.07568,-0.0103446189
3869.79004,-0.0116561130
3868.50439,-0.0120942285
3867.21875,-0.0117879929
3865.93311,-0.0115850912
3864.64746,-0.0117770573
3863.36182,-0.0114158858
3862.07617,-0.0094310688
3860.79053,-0.0064747585
3859.50488,-0.0043097329
3858.21924,-0.0039488110
3856.93359,-0.0054464890
3855.64795,-0.0086592408
3854.36230,-0.0135816885
3853.07666,-0.0189979989
3851.79102,-0.0207057577
3850.50537,-0.0170560740
3849.21973,-0.0117495460
3847.93408,-0.0075107757
3846.64844,-0.0050832350
3845.36279,-0.0045192367
3844.07715,-0.0056043393
3842.79150,-0.0079293009
3841.50586,-0.0110060088
3840.22021,-0.0143585000
3838.93457,-0.0172595680
3837.64893,-0.0184377544
3836.36328,-0.0170481093
3835.07764,-0.0140447337
3833.79199,-0.0110593084
3832.50635,-0.0087704184
3831.22070,-0.0070780441
3829.93506,-0.0058803884
3828.64941,-0.0052928254
3827.36377,-0.0053334334
3826.07813,-0.0057670376
3824.79248,-0.0065114298
3823.50684,-0.0080543375
3822.22119,-0.0110312458
3820.93555,-0.0148944650
3819.64990,-0.0171883143
3818.36426,-0.0163861904
3817.07861,-0.0138251847
3815.79297,-0.0107417861
3814.50732,-0.0071496530
3813.22168,-0.0033255927
3811.93604,-0.0002058482
3810.65039,0.0014654151
3809.36475,0.0013628061
3808.07910,-0.0004643014
3806.79346,-0.0032804296
3805.50781,-0.0057622348
3804.22217,-0.0074276738
3802.93652,-0.0090888804
3801.65088,-0.0110757118
3800.36523,-0.0120781166
3799.07959,-0.0109238764
3797.79395,-0.0085028512
3796.50830,-0.0058544930
3795.22266,-0.0029844698
3793.93701,0.0000615094
3792.65137,0.0026991651
3791.36572,0.0045258733
3790.08008,0.0056507257
3788.79443,0.0062157698
3787.50879,0.0060200780
3786.22314,0.0048694261
3784.93750,0.0032253535
3783.65186,0.0020567917
3782.36621,0.0017371564
3781.08057,0.0016654048
3779.79492,0.0013561844
3778.50928,0.0013264273
3777.22363,0.0023797075
3775.93799,0.0042113955
3774.65234,0.0056805704
3773.36670,0.0059469594
3772.08105,0.0047849850
3770.79541,0.0025676459
3769.50977,0.0003711304
3768.22412,-0.0005329238
3766.93848,0.0000925263
3765.65283,0.0014721422
3764.36719,0.0028811179
3763.08154,0.0038022639
3761.79590,0.0036421388
3760.51025,0.0020491192
3759.22461,-0.0004394249
3757.93896,-0.0023413280
3756.65332,-0.0027250943
3755.36768,-0.0025167312
3754.08203,-0.0033885250
3752.79639,-0.0064227805
3751.51074,-0.0114949010
3750.22510,-0.0162584931
3748.93945,-0.0173671748
3747.65381,-0.0153000895
3746.36816,-0.0129019478
3745.08252,-0.0112397522
3743.79688,-0.0097593730
3742.51123,-0.0079022041
3741.22559,-0.0061804056
3739.93994,-0.0054674507
3738.65430,-0.0063067633
3737.36865,-0.0089655109
3736.08301,-0.0130975517
3734.79736,-0.0168188661
3733.51172,-0.0170305874
3732.22607,-0.0128879258
3730.94043,-0.0070248130
3729.65479,-0.0021478750
3728.36914,0.0007007805
3727.08350,0.0015957694
3725.79785,0.0012079387
3724.51221,0.0006598426
3723.22656,0.0010619749
3721.94092,0.0027995112
3720.65527,0.0055287182
3719.36963,0.0086808419
3718.08398,0.0117190313
3716.79834,0.0141196987
3715.51270,0.0153176514
3714.22705,0.0147212083
3712.94141,0.0119532812
3711.65576,0.0078000054
3710.37012,0.0053630280
3709.08447,0.0075272112
3707.79883,0.0127067640
3706.51318,0.0177139733
3705.22754,0.0211999267
3703.94189,0.0231487881
3702.65625,0.0240893904
3701.37061,0.0250394121
3700.08496,0.0270177685
3698.79932,0.0299716257
3697.51367,0.0329648964
3696.22803,0.0352583602
3694.94238,0.0365400277
3693.65674,0.0366172977
3692.37109,0.0353478715
3691.08545,0.0330389664
3689.79980,0.0312912315
3688.51416,0.0330232680
3687.22852,0.0391020551
3685.94287,0.0465921164
3684.65723,0.0530509986
3683.37158,0.0581069514
3682.08594,0.0619211420
3680.80029,0.0644243658
3679.51465,0.0654764995
3678.22900,0.0651463568
3676.94336,0.0639501587
3675.65771,0.0635680705
3674.37207,0.0665614754
3673.08643,0.0724298656
3671.80078,0.0779145733
3670.51514,0.0822696313
3669.22949,0.0877214074
3667.94385,0.0960892960
3666.65820,0.1058091745
3665.37256,0.1145714670
3664.08691,0.1217810437
3662.80127,0.1277330667
3661.51563,0.1327527612
3660.22998,0.1369018257
3658.94434,0.1400799900
3657.65869,0.1425751746
3656.37305,0.1454275250
3655.08740,0.1495027989
3653.80176,0.1539526433
3652.51611,0.1569200009
3651.23047,0.1573533565
3649.94482,0.1558380127
3648.65918,0.1561235487
3647.37354,0.1634412855
3646.08789,0.1757348776
3644.80225,0.1870329082
3643.51660,0.1954865605
3642.23096,0.2018527091
3640.94531,0.2071762830
3639.65967,0.2121326178
3638.37402,0.2169947624
3637.08838,0.2217670381
3635.80273,0.2263010442
3634.51709,0.2303076684
3633.23145,0.2333434820
3631.94580,0.2350038588
3630.66016,0.2353910059
3629.37451,0.2358574420
3628.08887,0.2393493503
3626.80322,0.2472278029
3625.51758,0.2563843727
3624.23193,0.2639468014
3622.94629,0.2693217993
3621.66064,0.2726179063
3620.37500,0.2743797898
3619.08936,0.2761466503
3617.80371,0.2798065245
3616.51807,0.2853936255
3615.23242,0.2913195789
3613.94678,0.2968204916
3612.66113,0.3022521436
3611.37549,0.3078247309
3610.08984,0.3130830824
3608.80420,0.3177950382
3607.51855,0.3226601779
3606.23291,0.3284378946
3604.94727,0.3346039355
3603.66162,0.3398624957
3602.37598,0.3435413539
3601.09033,0.3460579216
3599.80469,0.3485659361
3598.51904,0.3519837558
3597.23340,0.3562529683
3595.94775,0.3609793782
3594.66211,0.3663358390
3593.37646,0.3725643456
3592.09082,0.3789076805
3590.80518,0.3841083050
3589.51953,0.3878046572
3588.23389,0.3909248412
3586.94824,0.3952017128
3585.66260,0.4016014934
3584.37695,0.4089406729
3583.09131,0.4155981839
3581.80566,0.4211648107
3580.52002,0.4260367751
3579.23438,0.4306936860
3577.94873,0.4352978468
3576.66309,0.4397630692
3575.37744,0.4441049099
3574.09180,0.4485141337
3572.80615,0.4529853463
3571.52051,0.4570320547
3570.23486,0.4599071443
3568.94922,0.4612230361
3567.66357,0.4616829455
3566.37793,0.4633962214
3565.09229,0.4681391418
3563.80664,0.4750308692
3562.52100,0.4822780788
3561.23535,0.4892581105
3559.94971,0.4960559905
3558.66406,0.5027391911
3557.37842,0.5090900660
3556.09277,0.5146189928
3554.80713,0.5189790130
3553.52148,0.5225881338
3552.23584,0.5265858769
3550.95020,0.5317404270
3549.66455,0.5374853611
3548.37891,0.5425599813
3547.09326,0.5463213325
3545.80762,0.5493080616
3544.52197,0.5528848767
3543.23633,0.5580028892
3541.95068,0.5642026663
3540.66504,0.5702152252
3539.37939,0.5752332807
3538.09375,0.5795148015
3536.80811,0.5840826631
3535.52246,0.5897184610
3534.23682,0.5960482359
3532.95117,0.6018560529
3531.66553,0.6063359976
3530.37988,0.6097746491
3529.09424,0.6132175922
3527.80859,0.6175699830
3526.52295,0.6227718592
3525.23730,0.6279988885
3523.95166,0.6328936815
3522.66602,0.6379119754
3521.38037,0.6433089375
3520.09473,0.6486346126
3518.80908,0.6535999775
3517.52344,0.6586139202
3516.23779,0.6640281677
3514.95215,0.6695229411
3513.66650,0.6745568514
3512.38086,0.6789248586
3511.09521,0.6827713847
3509.80957,0.6866344810
3508.52393,0.6913462877
3507.23828,0.6971479058
3505.95264,0.7031782866
3504.66699,0.7085179687
3503.38135,0.7132285237
3502.09570,0.7179764509
3500.81006,0.7229573131
3499.52441,0.7277761698
3498.23877,0.7323055267
3496.95313,0.7369509339
3495.66748,0.7421340942
3494.38184,0.7477725148
3493.09619,0.7533625960
3491.81055,0.7585544586
3490.52490,0.7635154724
3489.23926,0.7686883807
3487.95361,0.7743549347
3486.66797,0.7803848386
3485.38232,0.7862310410
3484.09668,0.7912297249
3482.81104,0.7951830029
3481.52539,0.7988003492
3480.23975,0.8033557534
3478.95410,0.8095651269
3477.66846,0.8167932630
3476.38281,0.8235875964
3475.09717,0.8291640878
3473.81152,0.8342291713
3472.52588,0.8399950862
3471.24023,0.8464260697
3469.95459,0.8523511887
3468.66895,0.8571376204
3467.38330,0.8613308072
3466.09766,0.8656489849
3464.81201,0.8702970147
3463.52637,0.8752722144
3462.24072,0.8805790544
3460.95508,0.8859100938
3459.66943,0.8906112313
3458.38379,0.8942320347
3457.09814,0.8970949054
3455.81250,0.9004423022
3454.52686,0.9057334661
3453.24121,0.9133123755
3451.95557,0.9217205644
3450.66992,0.9287969470
3449.38428,0.9335533381
3448.09863,0.9369201660
3446.81299,0.9408701658
3445.52734,0.9467506409
3444.24170,0.9542405605
3442.95605,0.9618335366
3441.67041,0.9682280421
3440.38477,0.9731140137
3439.09912,0.9772382975
3437.81348,0.9816616774
3436.52783,0.9869218469
3435.24219,0.9927040339
3433.95654,0.9983569980
3432.67090,1.0033706427
3431.38525,1.0074987411
3430.09961,1.0110026598
3428.81396,1.0148690939
3427.52832,1.0200088024
3426.24268,1.0259797573
3424.95703,1.0312652588
3423.67139,1.0349889994
3422.38574,1.0377577543
3421.10010,1.0409958363
3419.81445,1.0459394455
3418.52881,1.0531116724
3417.24316,1.0618048906
3415.95752,1.0701808929
3414.67188,1.0764346123
3413.38623,1.0802152157
3412.10059,1.0827090740
3410.81494,1.0851769447
3409.52930,1.0877381563
3408.24365,1.0900888443
3406.95801,1.0927336216
3405.67236,1.0965975523
3404.38672,1.1015152931
3403.10107,1.1063505411
3401.81543,1.1105728149
3400.52979,1.1142983437
3399.24414,1.1169745922
3397.95850,1.1178581715
3396.67285,1.1181017160
3395.38721,1.1204451323
3394.10156,1.1260885000
3392.81592,1.1333884001
3391.53027,1.1402276754
3390.24463,1.1463270187
3388.95898,1.1521990299
3387.67334,1.1570478678
3386.38770,1.1595546007
3385.10205,1.1601518393
3383.81641,1.1609914303
3382.53076,1.1635251045
3381.24512,1.1671934128
3379.95947,1.1707599163
3378.67383,1.1737369299
3377.38818,1.1761529446
3376.10254,1.1776683331
3374.81689,1.1779272556
3373.53125,1.1774476767
3372.24561,1.1775746346
3370.95996,1.1791319847
3369.67432,1.1813173294
3368.38867,1.1828055382
3367.10303,1.1837553978
3365.81738,1.1857453585
3364.53174,1.1896276474
3363.24609,1.1944656372
3361.96045,1.1984732151
3360.67480,1.2001549006
3359.38916,1.1993334293
3358.10352,1.1977078915
3356.81787,1.1977708340
3355.53223,1.2000153065
3354.24658,1.2025599480
3352.96094,1.2036817074
3351.67529,1.2036656141
3350.38965,1.2036076784
3349.10400,1.2040883303
3347.81836,1.2053208351
3346.53271,1.2071049213
3345.24707,1.2082624435
3343.96143,1.2075688839
3342.67578,1.2054063082
3341.39014,1.2036010027
3340.10449,1.2035876513
3338.81885,1.2052514553
3337.53320,1.2071428299
3336.24756,1.2075570822
3334.96191,1.2060127258
3333.67627,1.2036719322
3332.39063,1.2017779350
3331.10498,1.2001546621
3329.81934,1.1979765892
3328.53369,1.1955816746
3327.24805,1.1943250895
3325.96240,1.1948877573
3324.67676,1.1963502169
3323.39111,1.1972651482
3322.10547,1.1967294216
3320.81982,1.1948400736
3319.53418,1.1925784349
3318.24854,1.1913381815
3316.96289,1.1916643381
3315.67725,1.1925100088
3314.39160,1.1921811104
3313.10596,1.1901742220
3311.82031,1.1876168251
3310.53467,1.1857659817
3309.24902,1.1846690178
3307.96338,1.1832997799
3306.67773,1.1807157993
3305.39209,1.1770727634
3304.10645,1.1735345125
3302.82080,1.1711355448
3301.53516,1.1698554754
3300.24951,1.1692436934
3298.96387,1.1696252823
3297.67822,1.1717668772
3296.39258,1.1751909256
3295.10693,1.1778118610
3293.82129,1.1778870821
3292.53564,1.1758757830
3291.25000,1.1737375259
3289.96436,1.1727399826
3288.67871,1.1722670794
3287.39307,1.1711164713
3286.10742,1.1693240404
3284.82178,1.1682968140
3283.53613,1.1689569950
3282.25049,1.1708376408
3280.96484,1.1730285883
3279.67920,1.1753985882
3278.39355,1.1779779196
3277.10791,1.1796267033
3275.82227,1.1785928011
3274.53662,1.1746789217
3273.25098,1.1699477434
3271.96533,1.1669346094
3270.67969,1.1666052341
3269.39404,1.1680655479
3268.10840,1.1690977812
3266.82275,1.1675170660
3265.53711,1.1628053188
3264.25146,1.1572935581
3262.96582,1.1545437574
3261.68018,1.1559137106
3260.39453,1.1590387821
3259.10889,1.1604655981
3257.82324,1.1592844725
3256.53760,1.1572291851
3255.25195,1.1555763483
3253.96631,1.1536289454
3252.68066,1.1502059698
3251.39502,1.1454833746
3250.10938,1.1409163475
3248.82373,1.1381515265
3247.53809,1.1382288933
3246.25244,1.1408871412
3244.96680,1.1441636086
3243.68115,1.1453326941
3242.39551,1.1431643963
3241.10986,1.1389274597
3239.82422,1.1347674131
3238.53857,1.1314846277
3237.25293,1.1281011105
3235.96729,1.1233838797
3234.68164,1.1173744202
3233.39600,1.1114403009
3232.11035,1.1070559025
3230.82471,1.1045910120
3229.53906,1.1030713320
3228.25342,1.1010785103
3226.96777,1.0979768038
3225.68213,1.0943228006
3224.39648,1.0909067392
3223.11084,1.0876523256
3221.82520,1.0837941170
3220.53955,1.0790845156
3219.25391,1.0742285252
3217.96826,1.0700271130
3216.68262,1.0666571856
3215.39697,1.0639204979
3214.11133,1.0615742207
3212.82568,1.0590878725
3211.54004,1.0556153059
3210.25439,1.0507591963
3208.96875,1.0451642275
3207.68311,1.0400167704
3206.39746,1.0359692574
3205.11182,1.0325894356
3203.82617,1.0286234617
3202.54053,1.0228704214
3201.25488,1.0150512457
3199.96924,1.0061451197
3198.68359,0.9979308248
3197.39795,0.9920043945
3196.11230,0.9887223244
3194.82666,0.9866142869
3193.54102,0.9831979871
3192.25537,0.9769801497
3190.96973,0.9687841535
3189.68408,0.9609172940
3188.39844,0.9550428391
3187.11279,0.9509428144
3185.82715,0.9471849799
3184.54150,0.9425407648
3183.25586,0.9366007447
3181.97021,0.9293993711
3180.68457,0.9211245775
3179.39893,0.9123374224
3178.11328,0.9040385485
3176.82764,0.8970295787
3175.54199,0.8911943436
3174.25635,0.8856548667
3172.97070,0.8796666265
3171.68506,0.8732581139
3170.39941,0.8669522405
3169.11377,0.8610983491
3167.82813,0.8555558920
3166.54248,0.8499702811
3165.25684,0.8441365957
3163.97119,0.8380656838
3162.68555,0.8318746686
3161.39990,0.8258062005
3160.11426,0.8202053905
3158.82861,0.8151232004
3157.54297,0.8098813891
3156.25732,0.8033959270
3154.97168,0.7952772975
3153.68604,0.7864402533
3152.40039,0.7783153653
3151.11475,0.7715365291
3149.82910,0.7655971646
3148.54346,0.7596904039
3147.25781,0.7535144091
3145.97217,0.7472461462
3144.68652,0.7410610914
3143.40088,0.7348992229
3142.11523,0.7286292315
3140.82959,0.7222487926
3139.54395,0.7158105373
3138.25830,0.7092938423
3136.97266,0.7026478648
3135.68701,0.6959728003
3134.40137,0.6894895434
3133.11572,0.6833229661
3131.83008,0.6774201393
3130.54443,0.6716522574
3129.25879,0.6658558249
3127.97314,0.6598480940
3126.68750,0.6535927057
3125.40186,0.6472636461
3124.11621,0.6409789324
3122.83057,0.6345984936
3121.54492,0.6280046105
3120.25928,0.6214201450
3118.97363,0.6151670814
3117.68799,0.6092008948
3116.40234,0.6031993628
3115.11670,0.5970681906
3113.83105,0.5910881758
3112.54541,0.5855086446
3111.25977,0.5802149177
3109.97412,0.5749189854
3108.68848,0.5695258379
3107.40283,0.5641914606
3106.11719,0.5590795875
3104.83154,0.5542029738
3103.54590,0.5494679213
3102.26025,0.5447554588
3100.97461,0.5399342179
3099.68896,0.5349159241
3098.40332,0.5297648311
3097.11768,0.5246673226
3095.83203,0.5197178125
3094.54639,0.5147913098
3093.26074,0.5097206235
3091.97510,0.5045646429
3090.68945,0.4995795190
3089.40381,0.4949234128
3088.11816,0.4904867709
3086.83252,0.4860730171
3085.54688,0.4816509485
3084.26123,0.4773062170
3082.97559,0.4729832411
3081.68994,0.4684434235
3080.40430,0.4635677040
3079.11865,0.4585794210
3077.83301,0.4538388252
3076.54736,0.4494914711
3075.26172,0.4454480708
3073.97607,0.4416299164
3072.69043,0.4380128980
3071.40479,0.4344254136
3070.11914,0.4305487871
3068.83350,0.4262281656
3067.54785,0.4216447473
3066.26221,0.4171105623
3064.97656,0.4128216803
3063.69092,0.4088442922
3062.40527,0.4051519036
3061.11963,0.4015710056
3059.83398,0.3978471458
3058.54834,0.3938910067
3057.26270,0.3898850679
3055.97705,0.3860774338
3054.69141,0.3825275302
3053.40576,0.3790931404
3052.12012,0.3755920231
3050.83447,0.3719413579
3049.54883,0.3682109416
3048.26318,0.3645834625
3046.97754,0.3612011969
3045.69189,0.3580335081
3044.40625,0.3549395502
3043.12061,0.3518498242
3041.83496,0.3488146365
3040.54932,0.3458710015
3039.26367,0.3429347575
3037.97803,0.3398750126
3036.69238,0.3366546631
3035.40674,0.3333590031
3034.12109,0.3301191926
3032.83545,0.3270411789
3031.54980,0.3241825700
3030.26416,0.3215355873
3028.97852,0.3190271854
3027.69287,0.3165553808
3026.40723,0.3140299916
3025.12158,0.3114252687
3023.83594,0.3088306487
3022.55029,0.3063920736
3021.26465,0.3041318357
3019.97900,0.3018657267
3018.69336,0.2993884683
3017.40771,0.2966957092
3016.12207,0.2939501703
3014.83643,0.2912912965
3013.55078,0.2887687385
3012.26514,0.2863986492
3010.97949,0.2841763198
3009.69385,0.2820473611
3008.40820,0.2799383998
3007.12256,0.2778123617
3005.83691,0.2756704390
3004.55127,0.2735319734
3003.26563,0.2714289129
3001.97998,0.2693651915
3000.69434,0.2672790885
2999.40869,0.2650980651
2998.12305,0.2628461719
2996.83740,0.2606537342
2995.55176,0.2586440742
2994.26611,0.2568336427
2992.98047,0.2551471889
2991.69482,0.2535092533
2990.40918,0.2519037426
2989.12354,0.2503573895
2987.83789,0.2488889098
2986.55225,0.2474600524
2985.26660,0.2459603995
2983.98096,0.2442685962
2982.69531,0.2423707396
2981.40967,0.2404070050
2980.12402,0.2385583520
2978.83838,0.2368917912
2977.55273,0.2353516519
2976.26709,0.2338806540
2974.98145,0.2324784994
2973.69580,0.2311376333
2972.41016,0.2297809124
2971.12451,0.2283240110
2969.83887,0.2267964929
2968.55322,0.2253504843
2967.26758,0.2240916789
2965.98193,0.2229312062
2964.69629,0.2216837853
2963.41064,0.2203179598
2962.12500,0.2190172225
2960.83936,0.2179599404
2959.55371,0.2171132118
2958.26807,0.2162719667
2956.98242,0.2152433842
2955.69678,0.2139646411
2954.41113,0.2124938965
2953.12549,0.2109341770
2951.83984,0.2093701214
2950.55420,0.2078644484
2949.26855,0.2064865977
2947.98291,0.2052920312
2946.69727,0.2042491883
2945.41162,0.2032205462
2944.12598,0.2020616084
2942.84033,0.2007842213
2941.55469,0.1996078342
2940.26904,0.1987878382
2938.98340,0.1983411461
2937.69775,0.1979700625
2936.41211,0.1973119825
2935.12646,0.1962589025
2933.84082,0.1950140148
2932.55518,0.1938617378
2931.26953,0.1929157823
2929.98389,0.1920804381
2928.69824,0.1912296861
2927.41260,0.1903755665
2926.12695,0.1896147132
2924.84131,0.1889328361
2923.55566,0.1881558448
2922.27002,0.1871362925
2920.98438,0.1859131008
2919.69873,0.1846278608
2918.41309,0.1833334118
2917.12744,0.1819405705
2915.84180,0.1803333908
2914.55615,0.1785027236
2913.27051,0.1765659750
2911.98486,0.1746716648
2910.69922,0.1728924066
2909.41357,0.1711982638
2908.12793,0.1695095599
2906.84229,0.1677707881
2905.55664,0.1660097837
2904.27100,0.1643463522
2902.98535,0.1629143208
2901.69971,0.1617433876
2900.41406,0.1607174873
2899.12842,0.1596583128
2897.84277,0.1584462225
2896.55713,0.1570775509
2895.27148,0.1556445807
2893.98584,0.1542655230
2892.70020,0.1530062854
2891.41455,0.1518455595
2890.12891,0.1507056057
2888.84326,0.1495156884
2887.55762,0.1482600272
2886.27197,0.1469988227
2884.98633,0.1458478123
2883.70068,0.1448979974
2882.41504,0.1441213787
2881.12939,0.1433642358
2879.84375,0.1424717605
2878.55811,0.1414413005
2877.27246,0.1404337436
2875.98682,0.1396066546
2874.70117,0.1389403790
2873.41553,0.1382642090
2872.12988,0.1374482363
2870.84424,0.1365296692
2869.55859,0.1356307566
2868.27295,0.1347943395
2866.98730,0.1339594424
2865.70166,0.1330906451
2864.41602,0.1322637945
2863.13037,0.1315795779
2861.84473,0.1310288161
2860.55908,0.1305064112
2859.27344,0.1299521774
2857.98779,0.1294227242
2856.70215,0.1290045083
2855.41650,0.1287045479
2854.13086,0.1284459978
2852.84521,0.1281307638
2851.55957,0.1276767105
2850.27393,0.1270240694
2848.98828,0.1261412352
2847.70264,0.1250286549
2846.41699,0.1237261072
2845.13135,0.1223213524
2843.84570,0.1209356636
2842.56006,0.1196786389
2841.27441,0.1186045781
2839.98877,0.1177056357
2838.70313,0.1169279218
2837.41748,0.1161948517
2836.13184,0.1154372245
2834.84619,0.1146133766
2833.56055,0.1137143970
2832.27490,0.1127691045
2830.98926,0.1118499488
2829.70361,0.1110396758
2828.41797,0.1103627309
2827.13232,0.1097588539
2825.84668,0.1091388315
2824.56104,0.1084578931
2823.27539,0.1077360883
2821.98975,0.1070223078
2820.70410,0.1063453034
2819.41846,0.1056918800
2818.13281,0.1050333604
2816.84717,0.1043761373
2815.56152,0.1037806273
2814.27588,0.1033111811
2812.99023,0.1029521152
2811.70459,0.1025822982
2810.41895,0.1020596921
2809.13330,0.1013455838
2807.84766,0.1005270928
2806.56201,0.0997186676
2805.27637,0.0989858434
2803.99072,0.0983614549
2802.70508,0.0978629142
2801.41943,0.0974498093
2800.13379,0.0970203951
2798.84814,0.0965005904
2797.56250,0.0959100276
2796.27686,0.0953137130
2794.99121,0.0947423950
2793.70557,0.0941826999
2792.41992,0.0936224461
2791.13428,0.0930783898
2789.84863,0.0925771222
2788.56299,0.0921158567
2787.27734,0.0916587189
2785.99170,0.0911861286
2784.70605,0.0907203704
2783.42041,0.0902770311
2782.13477,0.0898271427
2780.84912,0.0893523097
2779.56348,0.0888980404
2778.27783,0.0885109231
2776.99219,0.0881523788
2775.70654,0.0877430812
2774.42090,0.0872760490
2773.13525,0.0868274868
2771.84961,0.0864599347
2770.56396,0.0861623809
2769.27832,0.0858879983
2767.99268,0.0856021196
2766.70703,0.0852860063
2765.42139,0.0849335045
2764.13574,0.0845780149
2762.85010,0.0842909515
2761.56445,0.0841110498
2760.27881,0.0839853063
2758.99316,0.0838247165
2757.70752,0.0836210847
2756.42188,0.0834566727
2755.13623,0.0833869725
2753.85059,0.0833650529
2752.56494,0.0833112672
2751.27930,0.0832170099
2749.99365,0.0831365958
2748.70801,0.0830925852
2747.42236,0.0830256119
2746.13672,0.0828451291
2744.85107,0.0825165808
2743.56543,0.0821071416
2742.27979,0.0817473382
2740.99414,0.0815417767
2739.70850,0.0815050527
2738.42285,0.0815817267
2737.13721,0.0817050934
2735.85156,0.0818125606
2734.56592,0.0818359703
2733.28027,0.0817366242
2731.99463,0.0815666392
2730.70898,0.0814509913
2729.42334,0.0814863145
2728.13770,0.0816611052
2726.85205,0.0818836316
2725.56641,0.0820763409
2724.28076,0.0822380111
2722.99512,0.0824139491
2721.70947,0.0826121196
2720.42383,0.0827787220
2719.13818,0.0828636438
2717.85254,0.0828804672
2716.56689,0.0828799680
2715.28125,0.0829010755
2713.99561,0.0829684809
2712.70996,0.0830956846
2711.42432,0.0832569525
2710.13867,0.0833975151
2708.85303,0.0835052654
2707.56738,0.0836457536
2706.28174,0.0838899538
2704.99609,0.0842230991
2703.71045,0.0845535696
2702.42480,0.0848176777
2701.13916,0.0850561783
2699.85352,0.0853765830
2698.56787,0.0858478695
2697.28223,0.0864468589
2695.99658,0.0870950967
2694.71094,0.0877118409
2693.42529,0.0882398412
2692.13965,0.0886705220
2690.85400,0.0890651941
2689.56836,0.0895139128
2688.28271,0.0900533125
2686.99707,0.0906513706
2685.71143,0.0912805051
2684.42578,0.0919726342
2683.14014,0.0927751213
2681.85449,0.0936739221
2680.56885,0.0945805386
2679.28320,0.0953988954
2677.99756,0.0961009488
2676.71191,0.0967466980
2675.42627,0.0974342823
2674.14063,0.0982208699
2672.85498,0.0990674123
2671.56934,0.0998671055
2670.28369,0.1005559117
2668.99805,0.1012007296
2667.71240,0.1019492596
2666.42676,0.1028865650
2665.14111,0.1039596796
2663.85547,0.1050425172
2662.56982,0.1060470715
2661.28418,0.1069709659
2659.99854,0.1078572944
2658.71289,0.1087282002
2657.42725,0.1095729545
2656.14160,0.1104096472
2654.85596,0.1113168374
2653.57031,0.1123557314
2652.28467,0.1134754047
2650.99902,0.1145506129
2649.71338,0.1155116484
2648.42773,0.1164051220
2647.14209,0.1173282415
2645.85645,0.1183308363
2644.57080,0.1193862185
2643.28516,0.1204401553
2641.99951,0.1214803383
2640.71387,0.1225409433
2639.42822,0.1236464679
2638.14258,0.1247857735
2636.85693,0.1259481758
2635.57129,0.1271345913
2634.28564,0.1283182353
2633.00000,0.1294486970
2631.71436,0.1305139661
2630.42871,0.1315595657
2629.14307,0.1326360554
2627.85742,0.1337677836
2626.57178,0.1349684745
2625.28613,0.1362392008
2624.00049,0.1375486255
2622.71484,0.1388530433
2621.42920,0.1401361525
2620.14355,0.1413950771
2618.85791,0.1425982565
2617.57227,0.1436953694
2616.28662,0.1446819752
2615.00098,0.1456276625
2613.71533,0.1466278136
2612.42969,0.1477328390
2611.14404,0.1489307582
2609.85840,0.1501819342
2608.57275,0.1514435112
2607.28711,0.1526738107
2606.00146,0.1538517475
2604.71582,0.1550055295
2603.43018,0.1561829746
2602.14453,0.1573901772
2600.85889,0.1585976332
2599.57324,0.1598156095
2598.28760,0.1611037254
2597.00195,0.1624833345
2595.71631,0.1638896763
2594.43066,0.1652438790
2593.14502,0.1665358990
2591.85938,0.1677948982
2590.57373,0.1690148562
2589.28809,0.1701618582
2588.00244,0.1712660939
2586.71680,0.1724474579
2585.43115,0.1738066822
2584.14551,0.1753053665
2582.85986,0.1767989993
2581.57422,0.1782042384
2580.28857,0.1795958877
2579.00293,0.1811115891
2577.71729,0.1827770323
2576.43164,0.1844586581
2575.14600,0.1859893650
2573.86035,0.1873180717
2572.57471,0.1885229200
2571.28906,0.1897102594
2570.00342,0.1909422129
2568.71777,0.1922514737
2567.43213,0.1936592162
2566.14648,0.1951510906
2564.86084,0.1966671348
2563.57520,0.1981495321
2562.28955,0.1995900422
2561.00391,0.2010220438
2559.71826,0.2024836540
2558.43262,0.2039902359
2557.14697,0.2055212855
2555.86133,0.2070317268
2554.57568,0.2084886283
2553.29004,0.2098942399
2552.00439,0.2112600058
2550.71875,0.2125755697
2549.43311,0.2138195932
2548.14746,0.2149983943
2546.86182,0.2161457986
2545.57617,0.2172866166
2544.29053,0.2184249312
2543.00488,0.2195766419
2541.71924,0.2207805812
2540.43359,0.2220453322
2539.14795,0.2233062387
2537.86230,0.2244773209
2536.57666,0.2255306244
2535.29102,0.2264912575
2534.00537,0.2273751497
2532.71973,0.2281823009
2531.43408,0.2289405763
2530.14844,0.2297013998
2528.86279,0.2304935306
2527.57715,0.2313155383
2526.29150,0.2321659774
2525.00586,0.2330368608
2523.72021,0.2338736504
2522.43457,0.2345834672
2521.14893,0.2351087928
2519.86328,0.2354909033
2518.57764,0.2358501703
2517.29199,0.2362992316
2516.00635,0.2368587852
2514.72070,0.2374461889
2513.43506,0.2379504591
2512.14941,0.2383284867
2510.86377,0.2386274040
2509.57813,0.2389123738
2508.29248,0.2391819805
2507.00684,0.2393669784
2505.72119,0.2394138128
2504.43555,0.2393574268
2503.14990,0.2393010259
2501.86426,0.2393180877
2500.57861,0.2393786311
2499.29297,0.2393812686
2498.00732,0.2392568588
2496.72168,0.2390201837
2495.43604,0.2387271076
2494.15039,0.2384191751
2492.86475,0.2381154299
2491.57910,0.2378157377
2490.29346,0.2375014424
2489.00781,0.2371547371
2487.72217,0.2367667854
2486.43652,0.2363012135
2485.15088,0.2356907427
2483.86523,0.2349202186
2482.57959,0.2340752929
2481.29395,0.2332476676
2480.00830,0.2324245721
2478.72266,0.2315265983
2477.43701,0.2305300087
2476.15137,0.2294972539
2474.86572,0.2284969687
2473.58008,0.2275398374
2472.29443,0.2265856266
2471.00879,0.2255843878
2469.72314,0.2245068103
2468.43750,0.2233511358
2467.15186,0.2221411467
2465.86621,0.2209181041
2464.58057,0.2197062224
2463.29492,0.2184804827
2462.00928,0.2171921879
2460.72363,0.2158359140
2459.43799,0.2144618481
2458.15234,0.2131134719
2456.86670,0.2117889524
2455.58105,0.2104642987
2454.29541,0.2091193795
2453.00977,0.2077419013
2451.72412,0.2063369155
2450.43848,0.2049235702
2449.15283,0.2035067827
2447.86719,0.2020751834
2446.58154,0.2006450295
2445.29590,0.1992639303
2444.01025,0.1979500651
2442.72461,0.1966644228
2441.43896,0.1953581274
2440.15332,0.1940210164
2438.86768,0.1926710457
2437.58203,0.1913237721
2436.29639,0.1899789423
2435.01074,0.1886274219
2433.72510,0.1872651130
2432.43945,0.1858961880
2431.15381,0.1845129579
2429.86816,0.1830852330
2428.58252,0.1816046685
2427.29688,0.1801304072
2426.01123,0.1787552685
2424.72559,0.1775228977
2423.43994,0.1763971746
2422.15430,0.1753066778
2420.86865,0.1741979271
2419.58301,0.1730458140
2418.29736,0.1718364656
2417.01172,0.1705615520
2415.72607,0.1692418754
2414.44043,0.1679405868
2413.15479,0.1667127311
2411.86914,0.1655325145
2410.58350,0.1643059850
2409.29785,0.1629803032
2408.01221,0.1616128385
2406.72656,0.1603057534
2405.44092,0.1590931267
2404.15527,0.1579339802
2402.86963,0.1567977518
2401.58398,0.1557100862
2400.29834,0.1546955705
2399.01270,0.1537141502
2397.72705,0.1526959985
2396.44141,0.1516226530
2395.15576,0.1505341232
2393.87012,0.1494619548
2392.58447,0.1483917236
2391.29883,0.1472890526
2390.01318,0.1461126208
2388.72754,0.1447754651
2387.44189,0.1431212276
2386.15625,0.1409614384
2384.87061,0.1381381750
2383.58496,0.1345728487
2382.29932,0.1302946359
2381.01367,0.1254375875
2379.72803,0.1201694980
2378.44238,0.1145764515
2377.15674,0.1086123735
2375.87109,0.1021821350
2374.58545,0.0952721536
2373.29980,0.0879501030
2372.01416,0.0802313387
2370.72852,0.0720497593
2369.44287,0.0634384304
2368.15723,0.0546458513
2366.87158,0.0459839180
2365.58594,0.0377543233
2364.30029,0.0304471608
2363.01465,0.0247440916
2361.72900,0.0209584348
2360.44336,0.0187572092
2359.15771,0.0178349484
2357.87207,0.0187873468
2356.58643,0.0226918925
2355.30078,0.0297203045
2354.01514,0.0387983769
2352.72949,0.0484315120
2351.44385,0.0570805371
2350.15820,0.0632983446
2348.87256,0.0661058873
2347.58691,0.0650858432
2346.30127,0.0603601113
2345.01563,0.0530857481
2343.72998,0.0459042713
2342.44434,0.0414768532
2341.15869,0.0401513092
2339.87305,0.0404866748
2338.58740,0.0411736965
2337.30176,0.0416674539
2336.01611,0.0419627950
2334.73047,0.0422547422
2333.44482,0.0426846333
2332.15918,0.0433274098
2330.87354,0.0442675874
2329.58789,0.0455830656
2328.30225,0.0472661071
2327.01660,0.0492109209
2325.73096,0.0512660220
2324.44531,0.0533360727
2323.15967,0.0555032380
2321.87402,0.0580303818
2320.58838,0.0611577556
2319.30273,0.0648443773
2318.01709,0.0686948523
2316.73145,0.0721546412
2315.44580,0.0748277158
2314.16016,0.0766688734
2312.87451,0.0779457688
2311.58887,0.0790578574
2310.30322,0.0803541318
2309.01758,0.0820174888
2307.73193,0.0840243474
2306.44629,0.0861832425
2305.16064,0.0882400945
2303.87500,0.0899905115
2302.58936,0.0913493037
2301.30371,0.0923685208
2300.01807,0.0931962132
2298.73242,0.0939856619
2297.44678,0.0948167071
2296.16113,0.0956882834
2294.87549,0.0965691507
2293.58984,0.0974467620
2292.30420,0.0983301923
2291.01855,0.0992136449
2289.73291,0.1000554189
2288.44727,0.1008157507
2287.16162,0.1014996842
2285.87598,0.1021272764
2284.59033,0.1026626304
2283.30469,0.1030155346
2282.01904,0.1031255424
2280.73340,0.1030237153
2279.44775,0.1028066576
2278.16211,0.1025666669
2276.87646,0.1023534983
2275.59082,0.1021822914
2274.30518,0.1020594016
2273.01953,0.1019928306
2271.73389,0.1019875258
2270.44824,0.1020398140
2269.16260,0.1021256968
2267.87695,0.1021959633
2266.59131,0.1022048667
2265.30566,0.1021652669
2264.02002,0.1021521613
2262.73438,0.1022325829
2261.44873,0.1024013981
2260.16309,0.1026025936
2258.87744,0.1027946472
2257.59180,0.1029797718
2256.30615,0.1031793505
2255.02051,0.1034037545
2253.73486,0.1036487818
2252.44922,0.1039101630
2251.16357,0.1041825786
2249.87793,0.1044412553
2248.59229,0.1046470404
2247.30664,0.1047889292
2246.02100,0.1049050018
2244.73535,0.1050480232
2243.44971,0.1052396894
2242.16406,0.1054602042
2240.87842,0.1056696847
2239.59277,0.1058350280
2238.30713,0.1059535518
2237.02148,0.1060497761
2235.73584,0.1061460152
2234.45020,0.1062491164
2233.16455,0.1063612103
2231.87891,0.1064768955
2230.59326,0.1065729335
2229.30762,0.1066376269
2228.02197,0.1067063287
2226.73633,0.1068318486
2225.45068,0.1070191562
2224.16504,0.1072176546
2222.87939,0.1073738858
2221.59375,0.1074675694
2220.30811,0.1075131819
2219.02246,0.1075517163
2217.73682,0.1076309755
2216.45117,0.1077701971
2215.16553,0.1079429835
2213.87988,0.1081036255
2212.59424,0.1082279459
2211.30859,0.1083260030
2210.02295,0.1084226444
2208.73730,0.1085325032
2207.45166,0.1086531729
2206.16602,0.1087769195
2204.88037,0.1089024171
2203.59473,0.1090390757
2202.30908,0.1092015803
2201.02344,0.1093931571
2199.73779,0.1095926017
2198.45215,0.1097710058
2197.16650,0.1099235639
2195.88086,0.1100697517
2194.59521,0.1102224663
2193.30957,0.1103756130
2192.02393,0.1105252951
2190.73828,0.1106795147
2189.45264,0.1108377427
2188.16699,0.1109810695
2186.88135,0.1110875756
2185.59570,0.1111552790
2184.31006,0.1112073809
2183.02441,0.1112839878
2181.73877,0.1114265025
2180.45313,0.1116533950
2179.16748,0.1119340137
2177.88184,0.1121923551
2176.59619,0.1123635098
2175.31055,0.1124569103
2174.02490,0.1125459522
2172.73926,0.1126826704
2171.45361,0.1128453016
2170.16797,0.1129830778
2168.88232,0.1130829230
2167.59668,0.1131625846
2166.31104,0.1132225767
2165.02539,0.1132502332
2163.73975,0.1132695153
2162.45410,0.1133474782
2161.16846,0.1135322750
2159.88281,0.1138041839
2158.59717,0.1140982062
2157.31152,0.1143570393
2156.02588,0.1145485416
2154.74023,0.1146656424
2153.45459,0.1147385836
2152.16895,0.1148253679
2150.88330,0.1149571165
2149.59766,0.1151055619
2148.31201,0.1152306125
2147.02637,0.1153372750
2145.74072,0.1154584736
2144.45508,0.1156051457
2143.16943,0.1157617271
2141.88379,0.1159134731
2140.59814,0.1160500050
2139.31250,0.1161567867
2138.02686,0.1162266955
2136.74121,0.1162769645
2135.45557,0.1163444370
2134.16992,0.1164619327
2132.88428,0.1166330874
2131.59863,0.1168247610
2130.31299,0.1169953495
2129.02734,0.1171380579
2127.74170,0.1172840968
2126.45605,0.1174583510
2125.17041,0.1176422015
2123.88477,0.1177871898
2122.59912,0.1178667024
2121.31348,0.1179096699
2120.02783,0.1179778650
2118.74219,0.1181032434
2117.45654,0.1182553768
2116.17090,0.1183838993
2114.88525,0.1184786707
2113.59961,0.1185714155
2112.31396,0.1186923087
2111.02832,0.1188418865
2109.74268,0.1189957783
2108.45703,0.1191225946
2107.17139,0.1192127839
2105.88574,0.1192943081
2104.60010,0.1193974242
2103.31445,0.1195086464
2102.02881,0.1195895374
2100.74316,0.1196404845
2099.45752,0.1196993366
2098.17188,0.1197727844
2096.88623,0.1198103726
2095.60059,0.1197698861
2094.31494,0.1196780577
2093.02930,0.1196031049
2091.74365,0.1195852458
2090.45801,0.1196131706
2089.17236,0.1196629107
2087.88672,0.1197308376
2086.60107,0.1198295131
2085.31543,0.1199701056
2084.02979,0.1201497391
2082.74414,0.1203394532
2081.45850,0.1204828545
2080.17285,0.1205313727
2078.88721,0.1204913929
2077.60156,0.1204170883
2076.31592,0.1203566715
2075.03027,0.1203233451
2073.74463,0.1203174666
2072.45898,0.1203457490
2071.17334,0.1203957871
2069.88770,0.1204017475
2068.60205,0.1202772781
2067.31641,0.1200151592
2066.03076,0.1197503582
2064.74512,0.1196678579
2063.45947,0.1198182404
2062.17383,0.1200630814
2060.88818,0.1202251688
2059.60254,0.1202382818
2058.31689,0.1201427355
2057.03125,0.1200071946
2055.74561,0.1198841184
2054.45996,0.1197976768
2053.17432,0.1197394729
2051.88867,0.1196840852
2050.60303,0.1196097210
2049.31738,0.1195013821
2048.03174,0.1193523183
2046.74609,0.1191637963
2045.46045,0.1189190820
2044.17480,0.1185801327
2042.88916,0.1181641668
2041.60352,0.1178159788
2040.31787,0.1177152172
2039.03223,0.1178778782
2037.74658,0.1181159839
2036.46094,0.1182169095
2035.17529,0.1181279421
2033.88965,0.1179542169
2032.60400,0.1178149655
2031.31836,0.1177296489
2030.03271,0.1176413894
2028.74707,0.1175138354
2027.46143,0.1173652112
2026.17578,0.1172184721
2024.89014,0.1170655563
2023.60449,0.1168853641
2022.31885,0.1166396514
2021.03320,0.1162373349
2019.74756,0.1155977175
2018.46191,0.1148186624
2017.17627,0.1142214611
2015.89063,0.1140919700
2014.60498,0.1143634245
2013.31934,0.1146851555
2012.03369,0.1147874072
2010.74805,0.1146674231
2009.46240,0.1144654602
2008.17676,0.1142750457
2006.89111,0.1140943915
2005.60547,0.1138924137
2004.31982,0.1136620417
2003.03418,0.1134206131
2001.74854,0.1131803319
2000.46289,0.1129371971
1999.17725,0.1126925871
1997.89160,0.1124408990
1996.60596,0.1120892242
1995.32031,0.1114578620
1994.03467,0.1104803830
1992.74902,0.1094068438
1991.46338,0.1086874083
1990.17773,0.1085514203
1988.89209,0.1088206396
1987.60645,0.1091960743
1986.32080,0.1095167771
1985.03516,0.1097192839
1983.74951,0.1097517163
1982.46387,0.1096031964
1981.17822,0.1093388796
1979.89258,0.1090526581
1978.60693,0.1088031530
1977.32129,0.1085973829
1976.03564,0.1084063575
1974.75000,0.1081930175
1973.46436,0.1079311967
1972.17871,0.1075710431
1970.89307,0.1069876254
1969.60742,0.1060645133
1968.32178,0.1049305722
1967.03613,0.1040595397
1965.75049,0.1039047316
1964.46484,0.1043730751
1963.17920,0.1049200967
1961.89355,0.1051444411
1960.60791,0.1050557122
1959.32227,0.1048387811
1958.03662,0.1045760289
1956.75098,0.1042637974
1955.46533,0.1039504707
1954.17969,0.1037235558
1952.89404,0.1036015972
1951.60840,0.1035042405
1950.32275,0.1033012941
1949.03711,0.1028698087
1947.75146,0.1021285504
1946.46582,0.1010442004
1945.18018,0.0996697918
1943.89453,0.0982960463
1942.60889,0.0975135341
1941.32324,0.0977779254
1940.03760,0.0988081619
1938.75195,0.0998393446
1937.46631,0.1003835201
1936.18066,0.1004536450
1934.89502,0.1002935693
1933.60938,0.1001006886
1932.32373,0.0999410301
1931.03809,0.0997978151
1929.75244,0.0996398330
1928.46680,0.0994143412
1927.18115,0.0989519879
1925.89551,0.0979921520
1924.60986,0.0965041071
1923.32422,0.0949802920
1922.03857,0.0940973684
1920.75293,0.0939347222
1919.46729,0.0939960182
1918.18164,0.0940550938
1916.89600,0.0944192559
1915.61035,0.0952293500
1914.32471,0.0960088521
1913.03906,0.0961635485
1911.75342,0.0955314040
1910.46777,0.0944777802
1909.18213,0.0936642513
1907.89648,0.0935687497
1906.61084,0.0941014588
1905.32520,0.0947668627
1904.03955,0.0951585397
1902.75391,0.0952152610
1901.46826,0.0950930268
1900.18262,0.0948899090
1898.89697,0.0945182741
1897.61133,0.0938580260
1896.32568,0.0930366069
1895.04004,0.0924402848
1893.75439,0.0922527760
1892.46875,0.0921221897
1891.18311,0.0916301385
1889.89746,0.0909643024
1888.61182,0.0907815546
1887.32617,0.0913012698
1886.04053,0.0920353457
1884.75488,0.0925359875
1883.46924,0.0927919447
1882.18359,0.0929392204
1880.89795,0.0930004939
1879.61230,0.0929676667
1878.32666,0.0929073468
1877.04102,0.0928897783
1875.75537,0.0928873494
1874.46973,0.0927166939
1873.18408,0.0920125991
1871.89844,0.0903474614
1870.61279,0.0875964761
1869.32715,0.0845197365
1868.04150,0.0829079077
1866.75586,0.0839229673
1865.47021,0.0865210891
1864.18457,0.0889578909
1862.89893,0.0904333070
1861.61328,0.0910312384
1860.32764,0.0911697447
1859.04199,0.0912137851
1857.75635,0.0913333967
1856.47070,0.0915233865
1855.18506,0.0916833729
1853.89941,0.0917252228
1852.61377,0.0915979519
1851.32813,0.0911989734
1850.04248,0.0903621167
1848.75684,0.0890020281
1847.47119,0.0872002319
1846.18555,0.0852207020
1844.89990,0.0837435573
1843.61426,0.0838649049
1842.32861,0.0858038962
1841.04297,0.0882203728
1839.75732,0.0898173004
1838.47168,0.0903507397
1837.18604,0.0903326645
1835.90039,0.0903743953
1834.61475,0.0905110314
1833.32910,0.0901358500
1832.04346,0.0886874497
1830.75781,0.0864526033
1829.47217,0.0847894549
1828.18652,0.0848013163
1826.90088,0.0859403908
1825.61523,0.0872066543
1824.32959,0.0884895697
1823.04395,0.0900688991
1821.75830,0.0917444974
1820.47266,0.0930135474
1819.18701,0.0936717018
1817.90137,0.0939255655
1816.61572,0.0940632299
1815.33008,0.0940528139
1814.04443,0.0935672075
1812.75879,0.0924903750
1811.47314,0.0913335532
1810.18750,0.0909767300
1808.90186,0.0917868018
1807.61621,0.0932365432
1806.33057,0.0945094824
1805.04492,0.0950321928
1803.75928,0.0945806354
1802.47363,0.0933862776
1801.18799,0.0922032669
1799.90234,0.0918647721
1798.61670,0.0924366638
1797.33105,0.0931535214
1796.04541,0.0932473242
1794.75977,0.0924853832
1793.47412,0.0913672000
1792.18848,0.0913068503
1790.90283,0.0936114565
1789.61719,0.0974667072
1788.33154,0.1009307206
1787.04590,0.1031023860
1785.76025,0.1041751802
1784.47461,0.1047281101
1783.18896,0.1051662788
1781.90332,0.1056636721
1780.61768,0.1065262854
1779.33203,0.1080506966
1778.04639,0.1098845825
1776.76074,0.1111270785
1775.47510,0.1111276597
1774.18945,0.1100028753
1772.90381,0.1090180427
1771.61816,0.1103822216
1770.33252,0.1149113774
1769.04688,0.1210178882
1767.76123,0.1271862239
1766.47559,0.1327049732
1765.18994,0.1370432377
1763.90430,0.1401946992
1762.61865,0.1431614757
1761.33301,0.1472936273
1760.04736,0.1527474672
1758.76172,0.1587328911
1757.47607,0.1652610898
1756.19043,0.1726718098
1754.90479,0.1801414192
1753.61914,0.1863743067
1752.33350,0.1912088543
1751.04785,0.1958670616
1749.76221,0.2023990303
1748.47656,0.2120215893
1747.19092,0.2236478925
1745.90527,0.2355401814
1744.61963,0.2469696999
1743.33398,0.2578519881
1742.04834,0.2683780491
1740.76270,0.2791474164
1739.47705,0.2903662026
1738.19141,0.3006525338
1736.90576,0.3084518313
1735.62012,0.3144498765
1734.33447,0.3218224943
1733.04883,0.3333800733
1731.76318,0.3469229341
1730.47754,0.3592383265
1729.19189,0.3703736365
1727.90625,0.3805183470
1726.62061,0.3890259266
1725.33496,0.3958103955
1724.04932,0.4015452564
1722.76367,0.4065856040
1721.47803,0.4104025364
1720.19238,0.4121702313
1718.90674,0.4116639793
1717.62109,0.4104661345
1716.33545,0.4124767780
1715.04980,0.4190981090
1713.76416,0.4268878996
1712.47852,0.4331525862
1711.19287,0.4371799529
1709.90723,0.4389678836
1708.62158,0.4388229847
1707.33594,0.4372532964
1706.05029,0.4351218641
1704.76465,0.4336330295
1703.47900,0.4331435561
1702.19336,0.4325733781
1700.90771,0.4306987524
1699.62207,0.4278202057
1698.33643,0.4262391925
1697.05078,0.4281334281
1695.76514,0.4339940548
1694.47949,0.4417141378
1693.19385,0.4477601647
1691.90820,0.4508242309
1690.62256,0.4518194497
1689.33691,0.4519529045
1688.05127,0.4516861439
1686.76563,0.4508800507
1685.47998,0.4500716329
1684.19434,0.4519962072
1682.90869,0.4594015479
1681.62305,0.4693971574
1680.33740,0.4783128202
1679.05176,0.4855543673
1677.76611,0.4914948642
1676.48047,0.4968777597
1675.19482,0.5026811957
1673.90918,0.5089604855
1672.62354,0.5145943165
1671.33789,0.5195298195
1670.05225,0.5262612700
1668.76660,0.5373455286
1667.48096,0.5502730012
1666.19531,0.5605955720
1664.90967,0.5678521991
1663.62402,0.5743927956
1662.33838,0.5828044415
1661.05273,0.5933360457
1659.76709,0.6035567522
1658.48145,0.6114116311
1657.19580,0.6162585020
1655.91016,0.6181778312
1654.62451,0.6185304523
1653.33887,0.6223179698
1652.05322,0.6336395741
1650.76758,0.6444180608
1649.48193,0.6496818662
1648.19629,0.6522892714
1646.91064,0.6572974324
1645.62500,0.6678677797
1644.33936,0.6796810627
1643.05371,0.6880949140
1641.76807,0.6929224730
1640.48242,0.6948438287
1639.19678,0.6938964128
1637.91113,0.6901894808
1636.62549,0.6853159666
1635.33984,0.6832154393
1634.05420,0.6855522394
1632.76855,0.6883565784
1631.48291,0.6885328293
1630.19727,0.6853152514
1628.91162,0.6788210869
1627.62598,0.6701204777
1626.34033,0.6606086493
1625.05469,0.6504154801
1623.76904,0.6389663219
1622.48340,0.6272906065
1621.19775,0.6173850894
1619.91211,0.6087765098
1618.62646,0.5985194445
1617.34082,0.5840564370
1616.05518,0.5673661828
1614.76953,0.5542218685
1613.48389,0.5452066660
1612.19824,0.5365986824
1610.91260,0.5261059403
1609.62695,0.5137769580
1608.34131,0.5010375381
1607.05566,0.4892382324
1605.77002,0.4785197973
1604.48438,0.4680893421
1603.19873,0.4574013352
1601.91309,0.4468326271
1600.62744,0.4370892942
1599.34180,0.4281677008
1598.05615,0.4193605185
1596.77051,0.4101259410
1595.48486,0.4006555378
1594.19922,0.3916715086
1592.91357,0.3836686909
1591.62793,0.3764765263
1590.34229,0.3696961105
1589.05664,0.3632454574
1587.77100,0.3572133780
1586.48535,0.3514624834
1585.19971,0.3457245827
1583.91406,0.3399362862
1582.62842,0.3342089057
1581.34277,0.3285279870
1580.05713,0.3225596249
1578.77148,0.3156519234
1577.48584,0.3073206246
1576.20020,0.2989347279
1574.91455,0.2938674092
1573.62891,0.2921632826
1572.34326,0.2904767692
1571.05762,0.2867469788
1569.77197,0.2813887298
1568.48633,0.2768811882
1567.20068,0.2746065855
1565.91504,0.2731359303
1564.62939,0.2709964514
1563.34375,0.2679232359
1562.05811,0.2637860179
1560.77246,0.2574135065
1559.48682,0.2472090125
1558.20117,0.2373381704
1556.91553,0.2362632006
1555.62988,0.2398329377
1554.34424,0.2428970337
1553.05859,0.2446113527
1551.77295,0.2450890541
1550.48730,0.2447279394
1549.20166,0.2440566719
1547.91602,0.2429372072
1546.63037,0.2403301001
1545.34473,0.2351685464
1544.05908,0.2273195833
1542.77344,0.2179715037
1541.48779,0.2097047418
1540.20215,0.2076363415
1538.91650,0.2139832377
1537.63086,0.2212736309
1536.34521,0.2247834504
1535.05957,0.2249822021
1533.77393,0.2237968296
1532.48828,0.2235416174
1531.20264,0.2246413380
1529.91699,0.2252131850
1528.63135,0.2238682508
1527.34570,0.2207553089
1526.06006,0.2170724422
1524.77441,0.2137237191
1523.48877,0.2105477005
1522.20313,0.2078420520
1520.91748,0.2071905285
1519.63184,0.2088004947
1518.34619,0.2109385431
1517.06055,0.2132085860
1515.77490,0.2164502591
1514.48926,0.2202598304
1513.20361,0.2228822559
1511.91797,0.2229063362
1510.63232,0.2198094875
1509.34668,0.2138350606
1508.06104,0.2071403116
1506.77539,0.2069500983
1505.48975,0.2169731557
1504.20410,0.2271960527
1502.91846,0.2328512222
1501.63281,0.2351992130
1500.34717,0.2355294973
1499.06152,0.2348141819
1497.77588,0.2347017676
1496.49023,0.2371155322
1495.20459,0.2415093035
1493.91895,0.2450885922
1492.63330,0.2461518794
1491.34766,0.2448157221
1490.06201,0.2429146022
1488.77637,0.2439293414
1487.49072,0.2493603975
1486.20508,0.2563834190
1484.91943,0.2621521652
1483.63379,0.2660055757
1482.34814,0.2685510814
1481.06250,0.2706107795
1479.77686,0.2724232972
1478.49121,0.2735332549
1477.20557,0.2733950913
1475.91992,0.2718951702
1474.63428,0.2698576450
1473.34863,0.2698805034
1472.06299,0.2748956382
1470.77734,0.2831068635
1469.49170,0.2898180783
1468.20605,0.2933037281
1466.92041,0.2944246233
1465.63477,0.2950805426
1464.34912,0.2971648276
1463.06348,0.3003694713
1461.77783,0.3023192286
1460.49219,0.3013970554
1459.20654,0.2976744175
1457.92090,0.2938393950
1456.63525,0.2960574627
1455.34961,0.3050204217
1454.06396,0.3137547970
1452.77832,0.3195892274
1451.49268,0.3232110441
1450.20703,0.3254313469
1448.92139,0.3270481825
1447.63574,0.3290528655
1446.35010,0.3318922222
1445.06445,0.3349381685
1443.77881,0.3373945653
1442.49316,0.3390034735
1441.20752,0.3396908343
1439.92188,0.3392554820
1438.63623,0.3377318680
1437.35059,0.3360487819
1436.06494,0.3358395994
1434.77930,0.3372225165
1433.49365,0.3383458853
1432.20801,0.3381599188
1430.92236,0.3371455669
1429.63672,0.3363726735
1428.35107,0.3362637460
1427.06543,0.3361197710
1425.77979,0.3352184296
1424.49414,0.3337023556
1423.20850,0.3321397305
1421.92285,0.3304865062
1420.63721,0.3281098604
1419.35156,0.3252649605
1418.06592,0.3239881694
1416.78027,0.3255472481
1415.49463,0.3283543587
1414.20898,0.3306421041
1412.92334,0.3319758475
1411.63770,0.3326717913
1410.35205,0.3331032097
1409.06641,0.3332374692
1407.78076,0.3327386975
1406.49512,0.3316109776
1405.20947,0.3305302858
1403.92383,0.3301136792
1402.63818,0.3298824131
1401.35254,0.3287481666
1400.06689,0.3262542784
1398.78125,0.3229661584
1397.49561,0.3199608922
1396.20996,0.3180217147
1394.92432,0.3175044954
1393.63867,0.3183085620
1392.35303,0.3194845319
1391.06738,0.3197842240
1389.78174,0.3186089396
1388.49609,0.3163339496
1387.21045,0.3142586648
1385.92480,0.3135990500
1384.63916,0.3140530288
1383.35352,0.3143775165
1382.06787,0.3138632476
1380.78223,0.3126318455
1379.49658,0.3110933602
1378.21094,0.3093607426
1376.92529,0.3072926104
1375.63965,0.3051614761
1374.35400,0.3039841056
1373.06836,0.3045435250
1371.78271,0.3061766922
1370.49707,0.3076588809
1369.21143,0.3086262047
1367.92578,0.3093610406
1366.64014,0.3098353744
1365.35449,0.3095960915
1364.06885,0.3086521924
1362.78320,0.3080953658
1361.49756,0.3092250228
1360.21191,0.3118061125
1358.92627,0.3144418001
1357.64063,0.3163015246
1356.35498,0.3174657524
1355.06934,0.3183873892
1353.78369,0.3194283247
1352.49805,0.3206715286
1351.21240,0.3219954371
1349.92676,0.3232546747
1348.64111,0.3244010210
1347.35547,0.3254845738
1346.06982,0.3265141249
1344.78418,0.3272579312
1343.49854,0.3272443712
1342.21289,0.3261298835
1340.92725,0.3242590427
1339.64160,0.3229238689
1338.35596,0.3235249519
1337.07031,0.3260356486
1335.78467,0.3291237354
1334.49902,0.3316716850
1333.21338,0.3333759904
1331.92773,0.3344214261
1330.64209,0.3351114988
1329.35645,0.3356830180
1328.07080,0.3362196982
1326.78516,0.3366636336
1325.49951,0.3369245827
1324.21387,0.3369568586
1322.92822,0.3367309868
1321.64258,0.3362401128
1320.35693,0.3356364965
1319.07129,0.3352679610
1317.78564,0.3353636861
1316.50000,0.3357129395
1315.21436,0.3359256387
1313.92871,0.3359515071
1312.64307,0.3360825777
1311.35742,0.3364809453
1310.07178,0.3369479179
1308.78613,0.3372024894
1307.50049,0.3371493816
1306.21484,0.3368253410
1304.92920,0.3362899423
1303.64355,0.3356505334
1302.35791,0.3350548446
1301.07227,0.3345690370
1299.78662,0.3341327608
1298.50098,0.3336757720
1297.21533,0.3332132399
1295.92969,0.3327863812
1294.64404,0.3323632479
1293.35840,0.3318561912
1292.07275,0.3312364519
1290.78711,0.3305925131
1289.50146,0.3300523460
1288.21582,0.3296701610
1286.93018,0.3294194639
1285.64453,0.3292752802
1284.35889,0.3292478621
1283.07324,0.3293414712
1281.78760,0.3295305371
1280.50195,0.3297902346
1279.21631,0.3301283419
1277.93066,0.3305839300
1276.64502,0.3311919868
1275.35938,0.3319346011
1274.07373,0.3327446282
1272.78809,0.3336006999
1271.50244,0.3346161246
1270.21680,0.3359830678
1268.93115,0.3378089368
1267.64551,0.3400381505
1266.35986,0.3425288796
1265.07422,0.3451622128
1263.78857,0.3478992283
1262.50293,0.3508033454
1261.21729,0.3540159464
1259.93164,0.3576566875
1258.64600,0.3617227077
1257.36035,0.3661198914
1256.07471,0.3707847595
1254.78906,0.3757013679
1253.50342,0.3808017075
1252.21777,0.3859423399
1250.93213,0.3910237849
1249.64648,0.3960874379
1248.36084,0.4012541473
1247.07520,0.4065952301
1245.78955,0.4120780230
1244.50391,0.4175942242
1243.21826,0.4230167866
1241.93262,0.4282668829
1240.64697,0.4333481491
1239.36133,0.4382924139
1238.07568,0.4430705011
1236.79004,0.4475912452
1235.50439,0.4517864287
1234.21875,0.4556439519
1232.93311,0.4591560066
1231.64746,0.4623011053
1230.36182,0.4650830030
1229.07617,0.4675111473
1227.79053,0.4695124626
1226.50488,0.4709396958
1225.21924,0.4717124403
1223.93359,0.4718735814
1222.64795,0.4714673758
1221.36230,0.4704546630
1220.07666,0.4688238800
1218.79102,0.4666983485
1217.50537,0.4642270505
1216.21973,0.4614244401
1214.93408,0.4582247138
1213.64844,0.4546651542
1212.36279,0.4509111047
1211.07715,0.4471057057
1209.79150,0.4432626963
1208.50586,0.4393160045
1207.22021,0.4352058768
1205.93457,0.4309049547
1204.64893,0.4264124632
1203.36328,0.4217479825
1202.07764,0.4169447720
1200.79199,0.4120492339
1199.50635,0.4071357548
1198.22070,0.4022901356
1196.93506,0.3975420296
1195.64941,0.3928385973
1194.36377,0.3881310821
1193.07813,0.3834613264
1191.79248,0.3789008558
1190.50684,0.3744279444
1189.22119,0.3699320257
1187.93555,0.3653431237
1186.64990,0.3606900573
1185.36426,0.3560196459
1184.07861,0.3513149619
1182.79297,0.3465154171
1181.50732,0.3415813148
1180.22168,0.3365118802
1178.93604,0.3313267529
1177.65039,0.3260664940
1176.36475,0.3208158016
1175.07910,0.3157088459
1173.79346,0.3108976483
1172.50781,0.3065052927
1171.22217,0.3025906682
1169.93652,0.2991285622
1168.65088,0.2960334718
1167.36523,0.2932386398
1166.07959,0.2907642126
1164.79395,0.2886815369
1163.50830,0.2870171666
1162.22266,0.2857337892
1160.93701,0.2848101258
1159.65137,0.2842879891
1158.36572,0.2842130363
1157.08008,0.2845579684
1155.79443,0.2852256000
1154.50879,0.2861095667
1153.22314,0.2871411741
1151.93750,0.2882843316
1150.65186,0.2895093858
1149.36621,0.2907843888
1148.08057,0.2920809090
1146.79492,0.2933677733
1145.50928,0.2945974767
1144.22363,0.2957137525
1142.93799,0.2966776788
1141.65234,0.2974933684
1140.36670,0.2982176244
1139.08105,0.2989348471
1137.79541,0.2996776998
1136.50977,0.3003707230
1135.22412,0.3008896112
1133.93848,0.3011865616
1132.65283,0.3013171554
1131.36719,0.3013487160
1130.08154,0.3012874126
1128.79590,0.3011086583
1127.51025,0.3008165359
1126.22461,0.3004428744
1124.93896,0.2999983132
1123.65332,0.2994388640
1122.36768,0.2986944914
1121.08203,0.2977411449
1119.79639,0.2966416776
1118.51074,0.2955007255
1117.22510,0.2943812013
1115.93945,0.2932733893
1114.65381,0.2921407521
1113.36816,0.2909653783
1112.08252,0.2897508442
1110.79688,0.2885112464
1109.51123,0.2872793078
1108.22559,0.2861060202
1106.93994,0.2850294113
1105.65430,0.2840463221
1104.36865,0.2831292748
1103.08301,0.2822655737
1101.79736,0.2814685702
1100.51172,0.2807530463
1099.22607,0.2801178098
1097.94043,0.2795638144
1096.65479,0.2791280448
1095.36914,0.2788855731
1094.08350,0.2789076865
1092.79785,0.2792175710
1091.51221,0.2797946334
1090.22656,0.2806079090
1088.94092,0.2816244662
1087.65527,0.2827919126
1086.36963,0.2840477228
1085.08398,0.2853534818
1083.79834,0.2866888940
1082.51270,0.2880008221
1081.22705,0.2891800404
1079.94141,0.2901028991
1078.65576,0.2907009125
1077.37012,0.2910154164
1076.08447,0.2912021875
1074.79883,0.2914490104
1073.51318,0.2918460369
1072.22754,0.2923466563
1070.94189,0.2928764224
1069.65625,0.2934466302
1068.37061,0.2941207886
1067.08496,0.2949043214
1065.79932,0.2957238853
1064.51367,0.2965089083
1063.22803,0.2972418964
1061.94238,0.2979266644
1060.65674,0.2985543609
1059.37109,0.2991073728
1058.08545,0.2995702624
1056.79980,0.2999228835
1055.51416,0.3001396656
1054.22852,0.3002032638
1052.94287,0.3001089394
1051.65723,0.2998645604
1050.37158,0.2994993031
1049.08594,0.2990648448
1047.80029,0.2986106277
1046.51465,0.2981577516
1045.22900,0.2977028787
1043.94336,0.2972446680
1042.65771,0.2967974544
1041.37207,0.2963855565
1040.08643,0.2960334122
1038.80078,0.2957664728
1037.51514,0.2956078649
1036.22949,0.2955583632
1034.94385,0.2955804765
1033.65820,0.2956247330
1032.37256,0.2956835926
1031.08691,0.2958057821
1029.80127,0.2960425913
1028.51563,0.2963953912
1027.22998,0.2968292534
1025.94434,0.2973261476
1024.65869,0.2979044318
1023.37305,0.2985880375
1022.08740,0.2993642986
1020.80176,0.3001867533
1019.51611,0.3010206819
1018.23047,0.3018736243
1016.94482,0.3027660251
1015.65918,0.3036846817
1014.37354,0.3045943081
1013.08789,0.3054940701
1011.80225,0.3064205945
1010.51660,0.3073859811
1009.23096,0.3083437085
1007.94531,0.3092392683
1006.65967,0.3100722432
1005.37402,0.3108936548
1004.08838,0.3117533922
1002.80273,0.3126644194
1001.51709,0.3136044443
1000.23145,0.3145377040
998.94580,0.3154403865
997.66016,0.3163213432
996.37451,0.3172229826
995.08887,0.3181930482
993.80322,0.3192531168
992.51758,0.3203934729
991.23193,0.3215847015
989.94629,0.3227825165
988.66064,0.3239426911
987.37500,0.3250563443
986.08936,0.3261657059
984.80371,0.3273216188
983.51807,0.3285347521
982.23242,0.3297860920
980.94678,0.3310690522
979.66113,0.3323933780
978.37549,0.3337634802
977.08984,0.3351773322
975.80420,0.3366410136
974.51855,0.3381615579
973.23291,0.3397269249
971.94727,0.3413067758
970.66162,0.3428834379
969.37598,0.3444824815
968.09033,0.3461751938
966.80469,0.3480275273
965.51904,0.3500306606
964.23340,0.3520945013
962.94775,0.3541213572
961.66211,0.3560795188
960.37646,0.3580028415
959.09082,0.3599474132
957.80518,0.3619669974
956.51953,0.3641071320
955.23389,0.3663914204
953.94824,0.3688092828
952.66260,0.3713276088
951.37695,0.3739155531
950.09131,0.3765611053
948.80566,0.3792601824
947.52002,0.3819830120
946.23438,0.3846585155
944.94873,0.3872174025
943.66309,0.3896586299
942.37744,0.3920529485
941.09180,0.3944570720
939.80615,0.3968388438
938.52051,0.3991112411
937.23486,0.4012375772
935.94922,0.4032746553
934.66357,0.4053026438
933.37793,0.4073350132
932.09229,0.4093229771
930.80664,0.4112448692
929.52100,0.4131647050
928.23535,0.4151892066
926.94971,0.4173769355
925.66406,0.4197037220
924.37842,0.4221090674
923.09277,0.4245649278
921.80713,0.4270932078
920.52148,0.4297308326
919.23584,0.4324902594
917.95020,0.4353634417
916.66455,0.4383568764
915.37891,0.4415068030
914.09326,0.4448527992
912.80762,0.4484195709
911.52197,0.4522351623
910.23633,0.4563460350
908.95068,0.4607802927
907.66504,0.4655142128
906.37939,0.4705036879
905.09375,0.4757165015
903.80811,0.4810793400
902.52246,0.4864266515
901.23682,0.4915831387
899.95117,0.4965029359
