3999.64014,0.0089830356
3998.35449,0.0091751758
3997.06885,0.0093414010
3995.78320,0.0093442304
3994.49756,0.0091403835
3993.21191,0.0088838665
3991.92627,0.0087382849
3990.64063,0.0087008607
3989.35498,0.0087212492
3988.06934,0.0088727428
3986.78369,0.0092492895
3985.49805,0.0097660059
3984.21240,0.0102075357
3982.92676,0.0104447361
3981.64111,0.0105198901
3980.35547,0.0105452444
3979.06982,0.0105640236
3977.78418,0.0105040846
3976.49854,0.0102600921
3975.21289,0.0098379431
3973.92725,0.0093902545
3972.64160,0.0090752486
3971.35596,0.0089167878
3970.07031,0.0088793486
3968.78467,0.0089789126
3967.49902,0.0092241429
3966.21338,0.0094998833
3964.92773,0.0096392892
3963.64209,0.0096134320
3962.35645,0.0095492592
3961.07080,0.0095357634
3959.78516,0.0094946977
3958.49951,0.0093282294
3957.21387,0.0091090584
3955.92822,0.0090102553
3954.64258,0.0090711517
3953.35693,0.0091463579
3952.07129,0.0091124671
3950.78564,0.0090457248
3949.50000,0.0091484198
3948.21436,0.0094926618
3946.92871,0.0098992465
3945.64307,0.0101483623
3944.35742,0.0102169178
3943.07178,0.0101863882
3941.78613,0.0100416671
3940.50049,0.0097126616
3939.21484,0.0092725065
3937.92920,0.0089277280
3936.64355,0.0088556223
3935.35791,0.0091380579
3934.07227,0.0097237537
3932.78662,0.0103773391
3931.50098,0.0107701048
3930.21533,0.0107814353
3928.92969,0.0106077362
3927.64404,0.0104612038
3926.35840,0.0103918668
3925.07275,0.0104213776
3923.78711,0.0105750831
3922.50146,0.0107596237
3921.21582,0.0108487112
3919.93018,0.0108695738
3918.64453,0.0109103173
3917.35889,0.0109040793
3916.07324,0.0107109603
3914.78760,0.0104024736
3913.50195,0.0102113793
3912.21631,0.0102201505
3910.93066,0.0102870753
3909.64502,0.0102269622
3908.35938,0.0099895885
3907.07373,0.0096970964
3905.78809,0.0095086163
3904.50244,0.0094304364
3903.21680,0.0092464341
3901.93115,0.0088007003
3900.64551,0.0083914483
3899.35986,0.0084736105
3898.07422,0.0090053668
3896.78857,0.0094798291
3895.50293,0.0095660081
3894.21729,0.0093564233
3892.93164,0.0091133388
3891.64600,0.0090153562
3890.36035,0.0090846578
3889.07471,0.0092544192
3887.78906,0.0094935335
3886.50342,0.0098160990
3885.21777,0.0102030039
3883.93213,0.0105484007
3882.64648,0.0107343616
3881.36084,0.0107338848
3880.07520,0.0105818463
3878.78955,0.0103704454
3877.50391,0.0103002749
3876.21826,0.0105805472
3874.93262,0.0112705696
3873.64697,0.0121900802
3872.36133,0.0129931290
3871.07568,0.0134339212
3869.79004,0.0134733310
3868.50439,0.0131775513
3867.21875,0.0127685266
3865.93311,0.0125505170
3864.64746,0.0126469014
3863.36182,0.0128708808
3862.07617,0.0128787197
3860.79053,0.0125499833
3859.50488,0.0120659294
3858.21924,0.0116287805
3856.93359,0.0113352370
3855.64795,0.0112238145
3854.36230,0.0113645988
3853.07666,0.0118195154
3851.79102,0.0122981826
3850.50537,0.0122779971
3849.21973,0.0118030226
3847.93408,0.0112542044
3846.64844,0.0109273065
3845.36279,0.0109491535
3844.07715,0.0112765199
3842.79150,0.0117584728
3841.50586,0.0122525161
3840.22021,0.0126614533
3838.93457,0.0128697334
3837.64893,0.0127656749
3836.36328,0.0124206413
3835.07764,0.0120524885
3833.79199,0.0117458124
3832.50635,0.0114846956
3831.22070,0.0113399662
3829.93506,0.0114070894
3828.64941,0.0116117112
3827.36377,0.0117466636
3826.07813,0.0117317969
3824.79248,0.0117337378
3823.50684,0.0119963093
3822.22119,0.0125963734
3820.93555,0.0133448103
3819.64990,0.0138795730
3818.36426,0.0140689723
3817.07861,0.0141012734
3815.79297,0.0140584661
3814.50732,0.0138503881
3813.22168,0.0134769101
3811.93604,0.0130717913
3810.65039,0.0127291000
3809.36475,0.0125101246
3808.07910,0.0125639457
3806.79346,0.0130996965
3805.50781,0.0141100716
3804.22217,0.0152440239
3802.93652,0.0161721036
3801.65088,0.0167283844
3800.36523,0.0167184062
3799.07959,0.0160703920
3797.79395,0.0150504401
3796.50830,0.0140134664
3795.22266,0.0132638002
3793.93701,0.0130188139
3792.65137,0.0132640144
3791.36572,0.0137739629
3790.08008,0.0142852850
3788.79443,0.0146398628
3787.50879,0.0148520954
3786.22314,0.0150151998
3784.93750,0.0151360435
3783.65186,0.0151390452
3782.36621,0.0150341745
3781.08057,0.0149247190
3779.79492,0.0148841571
3778.50928,0.0149264047
3777.22363,0.0150638930
3775.93799,0.0152886398
3774.65234,0.0155261373
3773.36670,0.0157095753
3772.08105,0.0158758219
3770.79541,0.0161720216
3769.50977,0.0166991688
3768.22412,0.0173238497
3766.93848,0.0177952517
3765.65283,0.0180676915
3764.36719,0.0182788242
3763.08154,0.0185058080
3761.79590,0.0187338013
3760.51025,0.0189898517
3759.22461,0.0193367880
3757.93896,0.0197486635
3756.65332,0.0201276019
3755.36768,0.0204277486
3754.08203,0.0206479598
3752.79639,0.0208278149
3751.51074,0.0212093312
3750.22510,0.0221104622
3748.93945,0.0231469609
3747.65381,0.0234742537
3746.36816,0.0230804533
3745.08252,0.0225921068
3743.79688,0.0225487519
3742.51123,0.0229805224
3741.22559,0.0235396735
3739.93994,0.0240793210
3738.65430,0.0246690940
3737.36865,0.0253377035
3736.08301,0.0259455368
3734.79736,0.0262460746
3733.51172,0.0262697265
3732.22607,0.0263963845
3730.94043,0.0267584566
3729.65479,0.0272369906
3728.36914,0.0278721936
3727.08350,0.0288367588
3725.79785,0.0301318318
3724.51221,0.0314543433
3723.22656,0.0324944668
3721.94092,0.0332578123
3720.65527,0.0338986777
3719.36963,0.0344213732
3718.08398,0.0347500741
3716.79834,0.0349266939
3715.51270,0.0351277702
3714.22705,0.0355643481
3712.94141,0.0364443623
3711.65576,0.0379422866
3710.37012,0.0398960374
3709.08447,0.0415817276
3707.79883,0.0424783118
3706.51318,0.0428265966
3705.22754,0.0431499146
3703.94189,0.0439172909
3702.65625,0.0455028042
3701.37061,0.0479701385
3700.08496,0.0507547855
3698.79932,0.0531128980
3697.51367,0.0549508594
3696.22803,0.0566756837
3694.94238,0.0585688613
3693.65674,0.0606072731
3692.37109,0.0627187341
3691.08545,0.0650668442
3689.79980,0.0680789948
3688.51416,0.0719241500
3687.22852,0.0757925361
3685.94287,0.0787669793
3684.65723,0.0810255334
3683.37158,0.0832659826
3682.08594,0.0859221220
3680.80029,0.0889745727
3679.51465,0.0921490416
3678.22900,0.0953660384
3676.94336,0.0991894454
3675.65771,0.1046444029
3674.37207,0.1114802435
3673.08643,0.1173584908
3671.80078,0.1214431524
3670.51514,0.1253592670
3669.22949,0.1304513961
3667.94385,0.1359527111
3666.65820,0.1403965056
3665.37256,0.1439957321
3664.08691,0.1477348804
3662.80127,0.1520629674
3661.51563,0.1568409950
3660.22998,0.1616989970
3658.94434,0.1663934290
3657.65869,0.1711045653
3656.37305,0.1763058454
3655.08740,0.1819476038
3653.80176,0.1871492565
3652.51611,0.1914460957
3651.23047,0.1955486983
3649.94482,0.2008543462
3648.65918,0.2083948255
3647.37354,0.2168754637
3646.08789,0.2236184329
3644.80225,0.2282740772
3643.51660,0.2320170850
3642.23096,0.2357864380
3640.94531,0.2399703413
3639.65967,0.2445098609
3638.37402,0.2491823286
3637.08838,0.2538629770
3635.80273,0.2585150301
3634.51709,0.2630369365
3633.23145,0.2672257125
3631.94580,0.2710205615
3630.66016,0.2749025524
3629.37451,0.2799733281
3628.08887,0.2867822051
3626.80322,0.2934364676
3625.51758,0.2978461981
3624.23193,0.3005840182
3622.94629,0.3030491471
3621.66064,0.3061420619
3620.37500,0.3104019463
3619.08936,0.3159496486
3617.80371,0.3219885826
3616.51807,0.3273222446
3615.23242,0.3318198919
3613.94678,0.3361754119
3612.66113,0.3406518698
3611.37549,0.3448401690
3610.08984,0.3484789729
3608.80420,0.3519532084
3607.51855,0.3557640612
3606.23291,0.3599057198
3604.94727,0.3641057611
3603.66162,0.3684035838
3602.37598,0.3730157614
3601.09033,0.3778687418
3599.80469,0.3824973404
3598.51904,0.3864943087
3597.23340,0.3900125921
3595.94775,0.3936878741
3594.66211,0.3981013000
3593.37646,0.4031705558
3592.09082,0.4081305265
3590.80518,0.4124381542
3589.51953,0.4163756669
3588.23389,0.4206333756
3586.94824,0.4255194962
3585.66260,0.4305382371
3584.37695,0.4350827336
3583.09131,0.4392636716
3581.80566,0.4435398877
3580.52002,0.4481555521
3579.23438,0.4529495239
3577.94873,0.4575496316
3576.66309,0.4618707001
3575.37744,0.4662598968
3574.09180,0.4709796607
3572.80615,0.4757697582
3571.52051,0.4801900089
3570.23486,0.4842671454
3568.94922,0.4886442125
3567.66357,0.4941025078
3566.37793,0.5005517602
3565.09229,0.5065866113
3563.80664,0.5113393664
3562.52100,0.5156235695
3561.23535,0.5203400254
3559.94971,0.5253954530
3558.66406,0.5301172137
3557.37842,0.5341882110
3556.09277,0.5380855799
3554.80713,0.5427120924
3553.52148,0.5486758947
3552.23584,0.5556650758
3550.95020,0.5624886751
3549.66455,0.5681747794
3548.37891,0.5728669763
3547.09326,0.5773391724
3545.80762,0.5821390152
3544.52197,0.5873379707
3543.23633,0.5927888155
3541.95068,0.5983462930
3540.66504,0.6038103700
3539.37939,0.6089372635
3538.09375,0.6137315035
3536.80811,0.6186513305
3535.52246,0.6241744161
3534.23682,0.6301473975
3532.95117,0.6359817386
3531.66553,0.6414667964
3530.37988,0.6468738317
3529.09424,0.6524315476
3527.80859,0.6581153274
3526.52295,0.6637979746
3525.23730,0.6692596078
3523.95166,0.6743688583
3522.66602,0.6794653535
3521.38037,0.6851096749
3520.09473,0.6913196445
3518.80908,0.6975575686
3517.52344,0.7034783959
3516.23779,0.7091843486
3514.95215,0.7148689628
3513.66650,0.7205943465
3512.38086,0.7263593674
3511.09521,0.7322140336
3509.80957,0.7383427620
3508.52393,0.7448536158
3507.23828,0.7513000965
3505.95264,0.7568761110
3504.66699,0.7614883184
3503.38135,0.7660992146
3502.09570,0.7716370821
3500.81006,0.7778201699
3499.52441,0.7836322188
3498.23877,0.7886877060
3496.95313,0.7934212089
3495.66748,0.7983302474
3494.38184,0.8035216928
3493.09619,0.8091068864
3491.81055,0.8155223727
3490.52490,0.8230053186
3489.23926,0.8307854533
3487.95361,0.8374112248
3486.66797,0.8421913981
3485.38232,0.8460241556
3484.09668,0.8504227996
3482.81104,0.8561971784
3481.52539,0.8632308245
3480.23975,0.8709418178
3478.95410,0.8787696362
3477.66846,0.8863915801
3476.38281,0.8934163451
3475.09717,0.8993085027
3473.81152,0.9040248990
3472.52588,0.9085750580
3471.24023,0.9141821265
3469.95459,0.9209731817
3468.66895,0.9278762341
3467.38330,0.9337952137
3466.09766,0.9386587739
3464.81201,0.9433443546
3463.52637,0.9486339092
3462.24072,0.9544481039
3460.95508,0.9601756930
3459.66943,0.9655145407
3458.38379,0.9707952738
3457.09814,0.9765270352
3455.81250,0.9829148650
3454.52686,0.9897868037
3453.24121,0.9969150424
3451.95557,1.0041787624
3450.66992,1.0112452507
3449.38428,1.0173625946
3448.09863,1.0222136974
3446.81299,1.0267958641
3445.52734,1.0324014425
3444.24170,1.0387588739
3442.95605,1.0444344282
3441.67041,1.0489822626
3440.38477,1.0537329912
3439.09912,1.0606460571
3437.81348,1.0705868006
3436.52783,1.0823450089
3435.24219,1.0930949450
3433.95654,1.1009392738
3432.67090,1.1069470644
3431.38525,1.1136686802
3430.09961,1.1217108965
3428.81396,1.1291115284
3427.52832,1.1338640451
3426.24268,1.1361360550
3424.95703,1.1381747723
3423.67139,1.1429228783
3422.38574,1.1522384882
3421.10010,1.1651562452
3419.81445,1.1774210930
3418.52881,1.1845070124
3417.24316,1.1859227419
3415.95752,1.1858887672
3414.67188,1.1888822317
3413.38623,1.1958869696
3412.10059,1.2048356533
3410.81494,1.2135025263
3409.52930,1.2207986116
3408.24365,1.2263346910
3406.95801,1.2302935123
3405.67236,1.2337801456
3404.38672,1.2376451492
3403.10107,1.2412904501
3401.81543,1.2434333563
3400.52979,1.2439241409
3399.24414,1.2443412542
3397.95850,1.2470749617
3396.67285,1.2536419630
3395.38721,1.2630753517
3394.10156,1.2720131874
3392.81592,1.2771842480
3391.53027,1.2781341076
3390.24463,1.2774567604
3388.95898,1.2788215876
3387.67334,1.2844119072
3386.38770,1.2935867310
3385.10205,1.3042342663
3383.81641,1.3148642778
3382.53076,1.3247274160
3381.24512,1.3321042061
3379.95947,1.3348681927
3378.67383,1.3332016468
3377.38818,1.3303307295
3376.10254,1.3299957514
3374.81689,1.3335496187
3373.53125,1.3386690617
3372.24561,1.3410749435
3370.95996,1.3391665220
3369.67432,1.3366022110
3368.38867,1.3386390209
3367.10303,1.3466924429
3365.81738,1.3575272560
3364.53174,1.3666616678
3363.24609,1.3717194796
3361.96045,1.3731157780
3360.67480,1.3727250099
3359.38916,1.3725146055
3358.10352,1.3733577728
3356.81787,1.3753496408
3355.53223,1.3780515194
3354.24658,1.3806806803
3352.96094,1.3825433254
3351.67529,1.3838554621
3350.38965,1.3852233887
3349.10400,1.3864709139
3347.81836,1.3868267536
3346.53271,1.3860173225
3345.24707,1.3841634989
3343.96143,1.3814082146
3342.67578,1.3783863783
3341.39014,1.3763676882
3340.10449,1.3760366440
3338.81885,1.3768721819
3337.53320,1.3780171871
3336.24756,1.3792405128
3334.96191,1.3807902336
3333.67627,1.3830974102
3332.39063,1.3866349459
3331.10498,1.3915491104
3329.81934,1.3973540068
3328.53369,1.4030891657
3327.24805,1.4075999260
3325.96240,1.4100112915
3324.67676,1.4103214741
3323.39111,1.4098112583
3322.10547,1.4098297358
3320.81982,1.4102399349
3319.53418,1.4094295502
3318.24854,1.4068048000
3316.96289,1.4040157795
3315.67725,1.4032713175
3314.39160,1.4047174454
3313.10596,1.4062254429
3311.82031,1.4058996439
3310.53467,1.4038072824
3309.24902,1.4011751413
3307.96338,1.3991684914
3306.67773,1.3991249800
3305.39209,1.4022452831
3304.10645,1.4077179432
3302.82080,1.4123369455
3301.53516,1.4133193493
3300.24951,1.4110800028
3298.96387,1.4076228142
3297.67822,1.4034581184
3296.39258,1.3975281715
3295.10693,1.3897622824
3293.82129,1.3820536137
3292.53564,1.3769828081
3291.25000,1.3760964870
3289.96436,1.3794076443
3288.67871,1.3857806921
3287.39307,1.3934154510
3286.10742,1.4001418352
3284.82178,1.4040613174
3283.53613,1.4045096636
3282.25049,1.4029572010
3280.96484,1.4011183977
3279.67920,1.3987705708
3278.39355,1.3943151236
3277.10791,1.3877695799
3275.82227,1.3817110062
3274.53662,1.3791711330
3273.25098,1.3811484575
3271.96533,1.3863997459
3270.67969,1.3924385309
3269.39404,1.3965361118
3268.10840,1.3967655897
3266.82275,1.3942469358
3265.53711,1.3931651115
3264.25146,1.3973999023
3262.96582,1.4059460163
3261.68018,1.4129641056
3260.39453,1.4126797915
3259.10889,1.4050625563
3257.82324,1.3952484131
3256.53760,1.3882997036
3255.25195,1.3856496811
3253.96631,1.3860766888
3252.68066,1.3878684044
3251.39502,1.3896216154
3250.10938,1.3897802830
3248.82373,1.3874500990
3247.53809,1.3836474419
3246.25244,1.3805878162
3244.96680,1.3790314198
3243.68115,1.3774166107
3242.39551,1.3740987778
3241.10986,1.3695621490
3239.82422,1.3656625748
3238.53857,1.3634470701
3237.25293,1.3622556925
3235.96729,1.3609369993
3234.68164,1.3590753078
3233.39600,1.3569455147
3232.11035,1.3546056747
3230.82471,1.3520157337
3229.53906,1.3497124910
3228.25342,1.3484915495
3226.96777,1.3479523659
3225.68213,1.3462629318
3224.39648,1.3421339989
3223.11084,1.3363822699
3221.82520,1.3309108019
3220.53955,1.3268650770
3219.25391,1.3240132332
3217.96826,1.3215105534
3216.68262,1.3188956976
3215.39697,1.3163243532
3214.11133,1.3138954639
3212.82568,1.3109657764
3211.54004,1.3067512512
3210.25439,1.3017760515
3208.96875,1.2977601290
3207.68311,1.2956197262
3206.39746,1.2941237688
3205.11182,1.2910354137
3203.82617,1.2852842808
3202.54053,1.2777042389
3201.25488,1.2695696354
3199.96924,1.2614544630
3198.68359,1.2531489134
3197.39795,1.2443645000
3196.11230,1.2353684902
3194.82666,1.2270957232
3193.54102,1.2204223871
3192.25537,1.2149611712
3190.96973,1.2089037895
3189.68408,1.2007130384
3188.39844,1.1907875538
3187.11279,1.1807590723
3185.82715,1.1717574596
3184.54150,1.1639577150
3183.25586,1.1572396755
3181.97021,1.1514272690
3180.68457,1.1461073160
3179.39893,1.1406258345
3178.11328,1.1340528727
3176.82764,1.1254796982
3175.54199,1.1150462627
3174.25635,1.1042752266
3172.97070,1.0945730209
3171.68506,1.0858104229
3170.39941,1.0769474506
3169.11377,1.0677188635
3167.82813,1.0589528084
3166.54248,1.0514709949
3165.25684,1.0453137159
3163.97119,1.0398778915
3162.68555,1.0344107151
3161.39990,1.0283317566
3160.11426,1.0213468075
3158.82861,1.0133736134
3157.54297,1.0044921637
3156.25732,0.9950842857
3154.97168,0.9858174324
3153.68604,0.9772309661
3152.40039,0.9692308307
3151.11475,0.9610734582
3149.82910,0.9521097541
3148.54346,0.9426007867
3147.25781,0.9334617853
3145.97217,0.9251174331
3144.68652,0.9170073271
3143.40088,0.9083603024
3142.11523,0.8991311193
3140.82959,0.8899541497
3139.54395,0.8813563585
3138.25830,0.8733729124
3136.97266,0.8657086492
3135.68701,0.8580589294
3134.40137,0.8501970768
3133.11572,0.8419517279
3131.83008,0.8333314657
3130.54443,0.8246309161
3129.25879,0.8161734939
3127.97314,0.8079293966
3126.68750,0.7996122241
3125.40186,0.7911017537
3124.11621,0.7824779749
3122.83057,0.7736454010
3121.54492,0.7643843293
3120.25928,0.7548595071
3118.97363,0.7457204461
3117.68799,0.7375283837
3116.40234,0.7302385569
3115.11670,0.7232686877
3113.83105,0.7159921527
3112.54541,0.7081940770
3111.25977,0.7001040578
3109.97412,0.6920326352
3108.68848,0.6840794683
3107.40283,0.6762976050
3106.11719,0.6689171195
3104.83154,0.6621388793
3103.54590,0.6557997465
3102.26025,0.6494810581
3100.97461,0.6429326534
3099.68896,0.6361946464
3098.40332,0.6293323040
3097.11768,0.6222535372
3095.83203,0.6148738861
3094.54639,0.6073452234
3093.26074,0.6000294089
3091.97510,0.5931972265
3090.68945,0.5867772698
3089.40381,0.5804350972
3088.11816,0.5738429427
3086.83252,0.5668969154
3085.54688,0.5597483516
3084.26123,0.5527232885
3082.97559,0.5461322069
3081.68994,0.5400280356
3080.40430,0.5341286063
3079.11865,0.5280616283
3077.83301,0.5216977596
3076.54736,0.5152100921
3075.26172,0.5088548660
3073.97607,0.5027884245
3072.69043,0.4970499575
3071.40479,0.4915931225
3070.11914,0.4862828851
3068.83350,0.4809058607
3067.54785,0.4752710462
3066.26221,0.4693359733
3064.97656,0.4632233977
3063.69092,0.4570925236
3062.40527,0.4510397017
3061.11963,0.4451334178
3059.83398,0.4394526482
3058.54834,0.4339893460
3057.26270,0.4285906255
3055.97705,0.4231344163
3054.69141,0.4177242219
3053.40576,0.4125803411
3052.12012,0.4077567756
3050.83447,0.4030772746
3049.54883,0.3983172476
3048.26318,0.3933593631
3046.97754,0.3882293999
3045.69189,0.3830977082
3044.40625,0.3782112002
3043.12061,0.3736931980
3041.83496,0.3693977594
3040.54932,0.3650397062
3039.26367,0.3604749739
3037.97803,0.3558064103
3036.69238,0.3512336910
3035.40674,0.3468629122
3034.12109,0.3426607847
3032.83545,0.3385451138
3031.54980,0.3344871104
3030.26416,0.3305225372
3028.97852,0.3266782165
3027.69287,0.3229101300
3026.40723,0.3191226423
3025.12158,0.3152430654
3023.83594,0.3112849891
3022.55029,0.3073229492
3021.26465,0.3033900857
3019.97900,0.2994119525
3018.69336,0.2952974439
3017.40771,0.2910993695
3016.12207,0.2870243788
3014.83643,0.2832470536
3013.55078,0.2797555029
3012.26514,0.2764069736
3010.97949,0.2730812132
3009.69385,0.2697423995
3008.40820,0.2664064467
3007.12256,0.2631044388
3005.83691,0.2598522604
3004.55127,0.2566041648
3003.26563,0.2532829046
3001.97998,0.2499122769
3000.69434,0.2466627359
2999.40869,0.2436722666
2998.12305,0.2408389449
2996.83740,0.2379102558
2995.55176,0.2347865701
2994.26611,0.2316339910
2992.98047,0.2286590487
2991.69482,0.2258763611
2990.40918,0.2231425196
2989.12354,0.2203396261
2987.83789,0.2174579352
2986.55225,0.2145508379
2985.26660,0.2116747200
2983.98096,0.2088640034
2982.69531,0.2061390132
2981.40967,0.2035190761
2980.12402,0.2010208964
2978.83838,0.1986340731
2977.55273,0.1963059157
2976.26709,0.1939629167
2974.98145,0.1915584058
2973.69580,0.1891117394
2972.41016,0.1866885573
2971.12451,0.1843325496
2969.83887,0.1820270121
2968.55322,0.1797462851
2967.26758,0.1775041968
2965.98193,0.1753192693
2964.69629,0.1731752306
2963.41064,0.1710672379
2962.12500,0.1690513194
2960.83936,0.1671814919
2959.55371,0.1654126197
2958.26807,0.1636073440
2956.98242,0.1616450250
2955.69678,0.1595155597
2954.41113,0.1573212743
2953.12549,0.1551893800
2951.83984,0.1531686187
2950.55420,0.1512032002
2949.26855,0.1492061019
2947.98291,0.1471597850
2946.69727,0.1451492310
2945.41162,0.1432928741
2944.12598,0.1416278034
2942.84033,0.1400781423
2941.55469,0.1385618895
2940.26904,0.1370836645
2938.98340,0.1356589198
2937.69775,0.1341965944
2936.41211,0.1325739771
2935.12646,0.1308188140
2933.84082,0.1291284114
2932.55518,0.1276833713
2931.26953,0.1264961362
2929.98389,0.1254258752
2928.69824,0.1242932379
2927.41260,0.1229988784
2926.12695,0.1215893701
2924.84131,0.1202000305
2923.55566,0.1189097241
2922.27002,0.1176630184
2920.98438,0.1163369194
2919.69873,0.1148723289
2918.41309,0.1133330315
2917.12744,0.1118374914
2915.84180,0.1104104519
2914.55615,0.1089231968
2913.27051,0.1072322354
2911.98486,0.1053646505
2910.69922,0.1035117283
2909.41357,0.1018437594
2908.12793,0.1003752723
2906.84229,0.0990021005
2905.55664,0.0976274461
2904.27100,0.0962439850
2902.98535,0.0949152932
2901.69971,0.0936847702
2900.41406,0.0925131813
2899.12842,0.0913166329
2897.84277,0.0900521651
2896.55713,0.0887431502
2895.27148,0.0874400139
2893.98584,0.0861903504
2892.70020,0.0850335211
2891.41455,0.0839834139
2890.12891,0.0830102488
2888.84326,0.0820503235
2887.55762,0.0810392573
2886.27197,0.0799639747
2884.98633,0.0788953528
2883.70068,0.0779353231
2882.41504,0.0770949796
2881.12939,0.0762672052
2879.84375,0.0753530264
2878.55811,0.0743653700
2877.27246,0.0733703673
2875.98682,0.0723932609
2874.70117,0.0714445859
2873.41553,0.0705685765
2872.12988,0.0697838590
2870.84424,0.0690195039
2869.55859,0.0681923106
2868.27295,0.0673228204
2866.98730,0.0665033385
2865.70166,0.0657583699
2864.41602,0.0650095046
2863.13037,0.0641935617
2861.84473,0.0633627698
2860.55908,0.0626276433
2859.27344,0.0620279722
2857.98779,0.0614953153
2856.70215,0.0609416664
2855.41650,0.0603462756
2854.13086,0.0597431473
2852.84521,0.0591515861
2851.55957,0.0585427061
2850.27393,0.0578664653
2848.98828,0.0570945852
2847.70264,0.0562386215
2846.41699,0.0553279333
2845.13135,0.0543821901
2843.84570,0.0534261689
2842.56006,0.0525227860
2841.27441,0.0517463349
2839.98877,0.0510934927
2838.70313,0.0504654124
2837.41748,0.0497754142
2836.13184,0.0490474962
2834.84619,0.0483598597
2833.56055,0.0477227494
2832.27490,0.0470812283
2830.98926,0.0464281477
2829.70361,0.0458430462
2828.41797,0.0453907959
2827.13232,0.0450345650
2825.84668,0.0446750373
2824.56104,0.0442449786
2823.27539,0.0437569916
2821.98975,0.0432759002
2820.70410,0.0428486802
2819.41846,0.0424468815
2818.13281,0.0419906788
2816.84717,0.0414399691
2815.56152,0.0408385694
2814.27588,0.0402598344
2812.99023,0.0397434309
2811.70459,0.0392957777
2810.41895,0.0389047563
2809.13330,0.0385371409
2807.84766,0.0381608494
2806.56201,0.0377812088
2805.27637,0.0374149345
2803.99072,0.0370368809
2802.70508,0.0365987122
2801.41943,0.0360911936
2800.13379,0.0355445109
2798.84814,0.0349847116
2797.56250,0.0344377644
2796.27686,0.0339523554
2794.99121,0.0335646607
2793.70557,0.0332558043
2792.41992,0.0329860970
2791.13428,0.0327456705
2789.84863,0.0325244851
2788.56299,0.0322636813
2787.27734,0.0318931155
2785.99170,0.0314147696
2784.70605,0.0309120733
2783.42041,0.0304771755
2782.13477,0.0301420651
2780.84912,0.0298768096
2779.56348,0.0296345484
2778.27783,0.0293954685
2776.99219,0.0291663781
2775.70654,0.0289407019
2774.42090,0.0286770612
2773.13525,0.0283370651
2771.84961,0.0279399883
2770.56396,0.0275601856
2769.27832,0.0272620153
2767.99268,0.0270453990
2766.70703,0.0268634725
2765.42139,0.0266876537
2764.13574,0.0265308358
2762.85010,0.0264010038
2761.56445,0.0262604579
2760.27881,0.0260500554
2758.99316,0.0257492140
2757.70752,0.0254054889
2756.42188,0.0251054764
2755.13623,0.0248995237
2753.85059,0.0247418173
2752.56494,0.0245303679
2751.27930,0.0242302474
2749.99365,0.0239284746
2748.70801,0.0237340741
2747.42236,0.0236503091
2746.13672,0.0235819779
2744.85107,0.0234383810
2743.56543,0.0231930781
2742.27979,0.0228636470
2740.99414,0.0224764775
2739.70850,0.0220661759
2738.42285,0.0216957722
2737.13721,0.0214507971
2735.85156,0.0213703569
2734.56592,0.0213735644
2733.28027,0.0213023834
2731.99463,0.0210732277
2730.70898,0.0207658205
2729.42334,0.0205344222
2728.13770,0.0204473678
2726.85205,0.0204270985
2725.56641,0.0203364845
2724.28076,0.0201033633
2722.99512,0.0197756737
2721.70947,0.0194705073
2720.42383,0.0192743819
2719.13818,0.0191832781
2717.85254,0.0191300362
2716.56689,0.0190620869
2715.28125,0.0189864691
2713.99561,0.0189366881
2712.70996,0.0189118125
2711.42432,0.0188705809
2710.13867,0.0187817775
2708.85303,0.0186574310
2707.56738,0.0185395218
2706.28174,0.0184669644
2704.99609,0.0184416026
2703.71045,0.0184162967
2702.42480,0.0183413848
2701.13916,0.0182283670
2699.85352,0.0181272533
2698.56787,0.0180394407
2697.28223,0.0179170016
2695.99658,0.0177590325
2694.71094,0.0176258385
2693.42529,0.0175277218
2692.13965,0.0173817463
2690.85400,0.0171311945
2689.56836,0.0168470163
2688.28271,0.0166550297
2686.99707,0.0165961813
2685.71143,0.0166046526
2684.42578,0.0166077185
2683.14014,0.0165989231
2681.85449,0.0165978726
2680.56885,0.0165731050
2679.28320,0.0164528303
2677.99756,0.0162221324
2676.71191,0.0159666371
2675.42627,0.0157925952
2674.14063,0.0157233942
2672.85498,0.0157006364
2671.56934,0.0156618543
2670.28369,0.0155918440
2668.99805,0.0155121600
2667.71240,0.0154526066
2666.42676,0.0154222716
2665.14111,0.0153931705
2663.85547,0.0153193148
2662.56982,0.0151860891
2661.28418,0.0150332358
2659.99854,0.0149178868
2658.71289,0.0148677370
2657.42725,0.0148837836
2656.14160,0.0149635142
2654.85596,0.0150899962
2653.57031,0.0152058732
2652.28467,0.0152390357
2650.99902,0.0151697099
2649.71338,0.0150485914
2648.42773,0.0149459373
2647.14209,0.0148962410
2645.85645,0.0148965083
2644.57080,0.0149341756
2643.28516,0.0149985068
2641.99951,0.0150771597
2640.71387,0.0151531445
2639.42822,0.0152093591
2638.14258,0.0152313961
2636.85693,0.0152113959
2635.57129,0.0151506253
2634.28564,0.0150642944
2633.00000,0.0149818929
2631.71436,0.0149290599
2630.42871,0.0149026709
2629.14307,0.0148719419
2627.85742,0.0148216924
2626.57178,0.0147797232
2625.28613,0.0147775523
2624.00049,0.0147932209
2622.71484,0.0147677511
2621.42920,0.0146815507
2620.14355,0.0145768700
2618.85791,0.0144998850
2617.57227,0.0144493841
2616.28662,0.0143991821
2615.00098,0.0143416002
2613.71533,0.0142923472
2612.42969,0.0142646618
2611.14404,0.0142568769
2609.85840,0.0142629491
2608.57275,0.0142872911
2607.28711,0.0143397022
2606.00146,0.0144138187
2604.71582,0.0144911613
2603.43018,0.0145676862
2602.14453,0.0146641461
2600.85889,0.0147935962
2599.57324,0.0149348192
2598.28760,0.0150477868
2597.00195,0.0151060242
2595.71631,0.0151092149
2594.43066,0.0150872376
2593.14502,0.0151014663
2591.85938,0.0152159007
2590.57373,0.0154435951
2589.28809,0.0157199074
2588.00244,0.0159443747
2586.71680,0.0160541143
2585.43115,0.0160586797
2584.14551,0.0160170998
2582.85986,0.0159989726
2581.57422,0.0160585474
2580.28857,0.0162062515
2579.00293,0.0163884982
2577.71729,0.0165183283
2576.43164,0.0165502485
2575.14600,0.0165175479
2573.86035,0.0164917633
2572.57471,0.0165139996
2571.28906,0.0165702272
2570.00342,0.0166221354
2568.71777,0.0166604612
2567.43213,0.0167190768
2566.14648,0.0168293081
2564.86084,0.0169729721
2563.57520,0.0171064772
2562.28955,0.0172113664
2561.00391,0.0172957536
2559.71826,0.0173636135
2558.43262,0.0174149964
2557.14697,0.0174554158
2555.86133,0.0174873769
2554.57568,0.0175146777
2553.29004,0.0175582319
2552.00439,0.0176340342
2550.71875,0.0177148357
2549.43311,0.0177585464
2548.14746,0.0177762937
2546.86182,0.0178280994
2545.57617,0.0179525074
2544.29053,0.0181371327
2543.00488,0.0183543712
2541.71924,0.0185850430
2540.43359,0.0188120790
2539.14795,0.0190208163
2537.86230,0.0192122273
2536.57666,0.0193993933
2535.29102,0.0195859335
2534.00537,0.0197483934
2532.71973,0.0198465772
2531.43408,0.0198705029
2530.14844,0.0198755469
2528.86279,0.0199524034
2527.57715,0.0201487262
2526.29150,0.0204302203
2525.00586,0.0207221024
2523.72021,0.0209712852
2522.43457,0.0211683698
2521.14893,0.0213286746
2519.86328,0.0214735065
2518.57764,0.0216251891
2517.29199,0.0217979643
2516.00635,0.0219795499
2514.72070,0.0221288204
2513.43506,0.0222097561
2512.14941,0.0222295895
2510.86377,0.0222318806
2509.57813,0.0222526379
2508.29248,0.0222960468
2507.00684,0.0223532207
2505.72119,0.0224280376
2504.43555,0.0225313306
2503.14990,0.0226602554
2501.86426,0.0228008665
2500.57861,0.0229489226
2499.29297,0.0231113844
2498.00732,0.0232868269
2496.72168,0.0234543085
2495.43604,0.0235909428
2494.15039,0.0236888807
2492.86475,0.0237558354
2491.57910,0.0238071047
2490.29346,0.0238659233
2489.00781,0.0239672903
2487.72217,0.0241417661
2486.43652,0.0243802145
2485.15088,0.0246155057
2483.86523,0.0247668084
2482.57959,0.0248237606
2481.29395,0.0248690713
2480.00830,0.0249917246
2478.72266,0.0251862556
2477.43701,0.0253678076
2476.15137,0.0254772361
2474.86572,0.0255390294
2473.58008,0.0256173350
2472.29443,0.0257458910
2471.00879,0.0259164926
2469.72314,0.0261117127
2468.43750,0.0263240691
2467.15186,0.0265446492
2465.86621,0.0267535020
2464.58057,0.0269316621
2463.29492,0.0270808265
2462.00928,0.0272169542
2460.72363,0.0273431670
2459.43799,0.0274515264
2458.15234,0.0275548920
2456.86670,0.0276918542
2455.58105,0.0278766938
2454.29541,0.0280668885
2453.00977,0.0282031279
2451.72412,0.0282773022
2450.43848,0.0283391047
2449.15283,0.0284502003
2447.86719,0.0286425781
2446.58154,0.0288973972
2445.29590,0.0291468054
2444.01025,0.0293186102
2442.72461,0.0293996781
2441.43896,0.0294421148
2440.15332,0.0295033418
2438.86768,0.0296023469
2437.58203,0.0297356881
2436.29639,0.0298991315
2435.01074,0.0300823860
2433.72510,0.0302663893
2432.43945,0.0304378029
2431.15381,0.0305933747
2429.86816,0.0307308007
2428.58252,0.0308530107
2427.29688,0.0309813153
2426.01123,0.0311483443
2424.72559,0.0313657373
2423.43994,0.0316018388
2422.15430,0.0317970961
2420.86865,0.0319133960
2419.58301,0.0319776721
2418.29736,0.0320676267
2417.01172,0.0322381407
2415.72607,0.0324623585
2414.44043,0.0326579995
2413.15479,0.0327827670
2411.86914,0.0328922346
2410.58350,0.0330827422
2409.29785,0.0333799273
2408.01221,0.0337117314
2406.72656,0.0339940935
2405.44092,0.0342111550
2404.15527,0.0344006382
2402.86963,0.0345880203
2401.58398,0.0347693413
2400.29834,0.0349402092
2399.01270,0.0351169072
2397.72705,0.0353219211
2396.44141,0.0355558619
2395.15576,0.0357918032
2393.87012,0.0360006541
2392.58447,0.0361775868
2391.29883,0.0363377593
2390.01318,0.0364912599
2388.72754,0.0366398878
2387.44189,0.0367966779
2386.15625,0.0369865075
2384.87061,0.0372252353
2383.58496,0.0375115275
2382.29932,0.0378467850
2381.01367,0.0382479094
2379.72803,0.0387287214
2378.44238,0.0392761976
2377.15674,0.0398615636
2375.87109,0.0404775813
2374.58545,0.0411512740
2373.29980,0.0418965369
2372.01416,0.0426473357
2370.72852,0.0432582572
2369.44287,0.0436092280
2368.15723,0.0437388085
2366.87158,0.0438410565
2365.58594,0.0440780185
2364.30029,0.0444276519
2363.01465,0.0448014326
2361.72900,0.0452466086
2360.44336,0.0458799899
2359.15771,0.0466048010
2357.87207,0.0470743887
2356.58643,0.0470231846
2355.30078,0.0465760380
2354.01514,0.0461444370
2352.72949,0.0460261069
2351.44385,0.0461748689
2350.15820,0.0463859476
2348.87256,0.0465888940
2347.58691,0.0468869656
2346.30127,0.0474107303
2345.01563,0.0481464304
2343.72998,0.0488669537
2342.44434,0.0493505374
2341.15869,0.0496458448
2339.87305,0.0499205813
2338.58740,0.0502172634
2337.30176,0.0504745729
2336.01611,0.0506460108
2334.73047,0.0507284813
2333.44482,0.0507392772
2332.15918,0.0507007539
2330.87354,0.0506453663
2329.58789,0.0506419353
2328.30225,0.0507694446
2327.01660,0.0510154068
2325.73096,0.0512518957
2324.44531,0.0513769016
2323.15967,0.0514389947
2321.87402,0.0515602082
2320.58838,0.0517624095
2319.30273,0.0519668311
2318.01709,0.0521352924
2316.73145,0.0523061901
2315.44580,0.0525028631
2314.16016,0.0526909456
2312.87451,0.0528332070
2311.58887,0.0529356003
2310.30322,0.0530252606
2309.01758,0.0531098284
2307.73193,0.0531770848
2306.44629,0.0532339923
2305.16064,0.0533346049
2303.87500,0.0535443090
2302.58936,0.0538653024
2301.30371,0.0542205311
2300.01807,0.0545338355
2298.73242,0.0548061095
2297.44678,0.0550793372
2296.16113,0.0553433746
2294.87549,0.0555357188
2293.58984,0.0556378663
2292.30420,0.0557313263
2291.01855,0.0559254661
2289.73291,0.0562434793
2288.44727,0.0566024855
2287.16162,0.0569068938
2285.87598,0.0571449585
2284.59033,0.0573799275
2283.30469,0.0576631241
2282.01904,0.0579789840
2280.73340,0.0582861081
2279.44775,0.0585819297
2278.16211,0.0589084812
2276.87646,0.0592993647
2275.59082,0.0597446039
2274.30518,0.0602025464
2273.01953,0.0606302917
2271.73389,0.0610101484
2270.44824,0.0613558628
2269.16260,0.0616856962
2267.87695,0.0619917773
2266.59131,0.0622607842
2265.30566,0.0625186637
2264.02002,0.0628148094
2262.73438,0.0631562024
2261.44873,0.0635010749
2260.16309,0.0638252348
2258.87744,0.0641457513
2257.59180,0.0644709393
2256.30615,0.0647777617
2255.02051,0.0650629029
2253.73486,0.0653669834
2252.44922,0.0657212362
2251.16357,0.0661054328
2249.87793,0.0664819404
2248.59229,0.0668463111
2247.30664,0.0672122985
2246.02100,0.0675724447
2244.73535,0.0679040700
2243.44971,0.0682098120
2242.16406,0.0685256571
2240.87842,0.0688756406
2239.59277,0.0692408681
2238.30713,0.0695802420
2237.02148,0.0698856786
2235.73584,0.0701995417
2234.45020,0.0705720186
2233.16455,0.0710010454
2231.87891,0.0714335516
2230.59326,0.0718257427
2229.30762,0.0721782967
2228.02197,0.0725047514
2226.73633,0.0728077516
2225.45068,0.0731079206
2224.16504,0.0734570250
2222.87939,0.0738826767
2221.59375,0.0743450001
2220.30811,0.0747754052
2219.02246,0.0751387179
2217.73682,0.0754507631
2216.45117,0.0757609159
2215.16553,0.0761252344
2213.87988,0.0765589476
2212.59424,0.0770059526
2211.30859,0.0773884207
2210.02295,0.0776954368
2208.73730,0.0779946595
2207.45166,0.0783539265
2206.16602,0.0787703246
2204.88037,0.0791825280
2203.59473,0.0795400292
2202.30908,0.0798525810
2201.02344,0.0801752955
2199.73779,0.0805457309
2198.45215,0.0809447765
2197.16650,0.0813215226
2195.88086,0.0816526040
2194.59521,0.0819696561
2193.30957,0.0823315531
2192.02393,0.0827677920
2190.73828,0.0832418427
2189.45264,0.0836674348
2188.16699,0.0839763805
2186.88135,0.0841769353
2185.59570,0.0843457133
2184.31006,0.0845596492
2183.02441,0.0848408118
2181.73877,0.0851643831
2180.45313,0.0855014622
2179.16748,0.0858369246
2177.88184,0.0861613080
2176.59619,0.0864720568
2175.31055,0.0867789984
2174.02490,0.0870834514
2172.73926,0.0873650536
2171.45361,0.0876128525
2170.16797,0.0878559053
2168.88232,0.0881329700
2167.59668,0.0884417668
2166.31104,0.0887538791
2165.02539,0.0890680850
2163.73975,0.0894084647
2162.45410,0.0897716284
2161.16846,0.0901112556
2159.88281,0.0903838649
2158.59717,0.0905889645
2157.31152,0.0907559022
2156.02588,0.0909122899
2154.74023,0.0910707042
2153.45459,0.0912364572
2152.16895,0.0914150551
2150.88330,0.0916128755
2149.59766,0.0918319598
2148.31201,0.0920633674
2147.02637,0.0922901109
2145.74072,0.0924996361
2144.45508,0.0926888436
2143.16943,0.0928574651
2141.88379,0.0930059850
2140.59814,0.0931418091
2139.31250,0.0932736024
2138.02686,0.0933961645
2136.74121,0.0934962183
2135.45557,0.0935725048
2134.16992,0.0936337188
2132.88428,0.0936789885
2131.59863,0.0937074870
2130.31299,0.0937407389
2129.02734,0.0938048512
2127.74170,0.0938912183
2126.45605,0.0939623341
2125.17041,0.0940015763
2123.88477,0.0940336213
2122.59912,0.0940894932
2121.31348,0.0941681713
2120.02783,0.0942359194
2118.74219,0.0942599401
2117.45654,0.0942412615
2116.17090,0.0942109674
2114.88525,0.0941923112
2113.59961,0.0941792354
2112.31396,0.0941576585
2111.02832,0.0941313505
2109.74268,0.0941127017
2108.45703,0.0941020325
2107.17139,0.0940865651
2105.88574,0.0940510184
2104.60010,0.0939893574
2103.31445,0.0939196870
2102.02881,0.0938805565
2100.74316,0.0938827917
2099.45752,0.0938791037
2098.17188,0.0938064903
2096.88623,0.0936469510
2095.60059,0.0934248939
2094.31494,0.0931715444
2093.02930,0.0929261670
2091.74365,0.0927382261
2090.45801,0.0926226601
2089.17236,0.0925306082
2087.88672,0.0924018919
2086.60107,0.0922311991
2085.31543,0.0920526236
2084.02979,0.0918841586
2082.74414,0.0917137712
2081.45850,0.0915231630
2080.17285,0.0913045853
2078.88721,0.0910657868
2077.60156,0.0908329561
2076.31592,0.0906348526
2075.03027,0.0904740468
2073.74463,0.0903136507
2072.45898,0.0901027545
2071.17334,0.0898211524
2069.88770,0.0895020813
2068.60205,0.0892079994
2067.31641,0.0889783427
2066.03076,0.0887933522
2064.74512,0.0885851607
2063.45947,0.0882939622
2062.17383,0.0879303515
2060.88818,0.0875752568
2059.60254,0.0873030499
2058.31689,0.0871079713
2057.03125,0.0869158283
2055.74561,0.0866579711
2054.45996,0.0863197744
2053.17432,0.0859343708
2051.88867,0.0855547711
2050.60303,0.0852223337
2049.31738,0.0849406719
2048.03174,0.0846770629
2046.74609,0.0843970478
2045.46045,0.0840914771
2044.17480,0.0837696120
2042.88916,0.0834357440
2041.60352,0.0830776095
2040.31787,0.0826770663
2039.03223,0.0822352245
2037.74658,0.0817843378
2036.46094,0.0813733488
2035.17529,0.0810416937
2033.88965,0.0807993934
2032.60400,0.0806124508
2031.31836,0.0804121122
2030.03271,0.0801410526
2028.74707,0.0797922313
2027.46143,0.0793936178
2026.17578,0.0789698586
2024.89014,0.0785377920
2023.60449,0.0781285614
2022.31885,0.0777794644
2021.03320,0.0774955004
2019.74756,0.0772335902
2018.46191,0.0769354627
2017.17627,0.0765752792
2015.89063,0.0761656985
2014.60498,0.0757262111
2013.31934,0.0752706081
2012.03369,0.0748282671
2010.74805,0.0744354874
2009.46240,0.0740921050
2008.17676,0.0737635344
2006.89111,0.0734369978
2005.60547,0.0731263012
2004.31982,0.0728130117
2003.03418,0.0724402070
2001.74854,0.0719927996
2000.46289,0.0715327263
1999.17725,0.0711323544
1997.89160,0.0708020329
1996.60596,0.0705013648
1995.32031,0.0701995194
1994.03467,0.0698967203
1992.74902,0.0696022138
1991.46338,0.0693143159
1990.17773,0.0690265819
1988.89209,0.0687330812
1987.60645,0.0684207305
1986.32080,0.0680797845
1985.03516,0.0677302554
1983.74951,0.0674085543
1982.46387,0.0671202019
1981.17822,0.0668364689
1979.89258,0.0665391833
1978.60693,0.0662356094
1977.32129,0.0659268498
1976.03564,0.0655997917
1974.75000,0.0652522966
1973.46436,0.0649003759
1972.17871,0.0645679682
1970.89307,0.0642808974
1969.60742,0.0640511364
1968.32178,0.0638501197
1967.03613,0.0636203736
1965.75049,0.0633326322
1964.46484,0.0630158782
1963.17920,0.0627183691
1961.89355,0.0624588877
1960.60791,0.0622223094
1959.32227,0.0619847924
1958.03662,0.0617387220
1956.75098,0.0614930503
1955.46533,0.0612546802
1954.17969,0.0610221326
1952.89404,0.0607913099
1951.60840,0.0605546013
1950.32275,0.0603046715
1949.03711,0.0600561015
1947.75146,0.0598421358
1946.46582,0.0596775711
1945.18018,0.0595387183
1943.89453,0.0593829378
1942.60889,0.0591689683
1941.32324,0.0588849373
1940.03760,0.0585765056
1938.75195,0.0583076924
1937.46631,0.0580900870
1936.18066,0.0578905717
1934.89502,0.0577028356
1933.60938,0.0575628951
1932.32373,0.0574852638
1931.03809,0.0574300364
1929.75244,0.0573476143
1928.46680,0.0572253615
1927.18115,0.0570923127
1925.89551,0.0569939837
1924.60986,0.0569417402
1923.32422,0.0568807460
1922.03857,0.0567540862
1920.75293,0.0565986484
1919.46729,0.0565016717
1918.18164,0.0564719178
1916.89600,0.0564244278
1915.61035,0.0563025847
1914.32471,0.0561537333
1913.03906,0.0560617484
1911.75342,0.0560664274
1910.46777,0.0561301112
1909.18213,0.0561479926
1907.89648,0.0560258776
1906.61084,0.0557746217
1905.32520,0.0555061176
1904.03955,0.0553361326
1902.75391,0.0552991144
1901.46826,0.0553368442
1900.18262,0.0553650670
1898.89697,0.0553549230
1897.61133,0.0553351939
1896.32568,0.0553305782
1895.04004,0.0553324036
1893.75439,0.0553351678
1892.46875,0.0553579852
1891.18311,0.0554034486
1889.89746,0.0554265045
1888.61182,0.0553805381
1887.32617,0.0552902669
1886.04053,0.0552287102
1884.75488,0.0552242734
1883.46924,0.0552432016
1882.18359,0.0552505217
1880.89795,0.0552540794
1879.61230,0.0552717149
1878.32666,0.0552905910
1877.04102,0.0552883521
1875.75537,0.0552741289
1874.46973,0.0552813560
1873.18408,0.0553448088
1871.89844,0.0555012375
1870.61279,0.0557817966
1869.32715,0.0561531782
1868.04150,0.0564633496
1866.75586,0.0565581694
1865.47021,0.0564666502
1864.18457,0.0563348010
1862.89893,0.0562690310
1861.61328,0.0562969595
1860.32764,0.0563874654
1859.04199,0.0564876124
1857.75635,0.0565680042
1856.47070,0.0566417612
1855.18506,0.0567426123
1853.89941,0.0568900146
1852.61377,0.0570753403
1851.32813,0.0572784916
1850.04248,0.0574888103
1848.75684,0.0577056669
1847.47119,0.0579402670
1846.18555,0.0582253933
1844.89990,0.0585793518
1843.61426,0.0589172803
1842.32861,0.0590943992
1841.04297,0.0591130815
1839.75732,0.0591127314
1838.47168,0.0591978990
1837.18604,0.0593710877
1835.90039,0.0595702156
1834.61475,0.0597515516
1833.32910,0.0599423535
1832.04346,0.0602199994
1830.75781,0.0606371909
1829.47217,0.0611193813
1828.18652,0.0614985377
1826.90088,0.0617314987
1825.61523,0.0619270541
1824.32959,0.0621548630
1823.04395,0.0623833276
1821.75830,0.0625883862
1820.47266,0.0628105924
1819.18701,0.0630834624
1817.90137,0.0633875355
1816.61572,0.0636900216
1815.33008,0.0639931783
1814.04443,0.0643299446
1812.75879,0.0647377893
1811.47314,0.0652306974
1810.18750,0.0657641515
1808.90186,0.0662529990
1807.61621,0.0666555986
1806.33057,0.0670029223
1805.04492,0.0673549473
1803.75928,0.0677725822
1802.47363,0.0683035627
1801.18799,0.0689395592
1799.90234,0.0695933402
1798.61670,0.0701764226
1797.33105,0.0706864148
1796.04541,0.0711797401
1794.75977,0.0717307329
1793.47412,0.0724200234
1792.18848,0.0732444972
1790.90283,0.0740065724
1789.61719,0.0745304599
1788.33154,0.0749156848
1787.04590,0.0753583759
1785.76025,0.0759463683
1784.47461,0.0766449124
1783.18896,0.0773906559
1781.90332,0.0781775191
1780.61768,0.0790191069
1779.33203,0.0798663050
1778.04639,0.0806415677
1776.76074,0.0813484937
1775.47510,0.0821015760
1774.18945,0.0830626488
1772.90381,0.0843130499
1771.61816,0.0856538564
1770.33252,0.0867063850
1769.04688,0.0873977542
1767.76123,0.0879426226
1766.47559,0.0885052010
1765.18994,0.0891596153
1763.90430,0.0899988189
1762.61865,0.0911091119
1761.33301,0.0923835412
1760.04736,0.0935375094
1758.76172,0.0945034698
1757.47607,0.0954900831
1756.19043,0.0966015831
1754.90479,0.0977199599
1753.61914,0.0988018587
1752.33350,0.1000448540
1751.04785,0.1016908363
1749.76221,0.1037129387
1748.47656,0.1057352573
1747.19092,0.1074655131
1745.90527,0.1089742333
1744.61963,0.1104541644
1743.33398,0.1120280772
1742.04834,0.1137720570
1740.76270,0.1157633066
1739.47705,0.1179381311
1738.19141,0.1200042590
1736.90576,0.1218447909
1735.62012,0.1239038110
1734.33447,0.1269211173
1733.04883,0.1308052242
1731.76318,0.1342768520
1730.47754,0.1370141953
1729.19189,0.1397310346
1727.90625,0.1427585930
1726.62061,0.1460173726
1725.33496,0.1495339870
1724.04932,0.1533932984
1722.76367,0.1573605090
1721.47803,0.1610714346
1720.19238,0.1646404862
1718.90674,0.1688394696
1717.62109,0.1746910512
1716.33545,0.1820597798
1715.04980,0.1889624298
1713.76416,0.1944136769
1712.47852,0.1991845369
1711.19287,0.2040288001
1709.90723,0.2091557980
1708.62158,0.2146613449
1707.33594,0.2209472507
1706.05029,0.2283349782
1704.76465,0.2360608578
1703.47900,0.2428667992
1702.19336,0.2490738928
1700.90771,0.2566801608
1699.62207,0.2668783069
1698.33643,0.2776342332
1697.05078,0.2871625125
1695.76514,0.2966574728
1694.47949,0.3062444925
1693.19385,0.3143977225
1691.90820,0.3213190436
1690.62256,0.3287121356
1689.33691,0.3373346329
1688.05127,0.3460540473
1686.76563,0.3539793491
1685.47998,0.3629788160
1684.19434,0.3764013648
1682.90869,0.3926242888
1681.62305,0.4055083990
1680.33740,0.4145883024
1679.05176,0.4223533273
1677.76611,0.4303022325
1676.48047,0.4395764768
1675.19482,0.4508958757
1673.90918,0.4630458951
1672.62354,0.4739257991
1671.33789,0.4839085340
1670.05225,0.4955393374
1668.76660,0.5094640851
1667.48096,0.5222521424
1666.19531,0.5317819118
1664.90967,0.5399472713
1663.62402,0.5495164990
1662.33838,0.5614513159
1661.05273,0.5738039017
1659.76709,0.5842477083
1658.48145,0.5925642252
1657.19580,0.5993635654
1655.91016,0.6053396463
1654.62451,0.6126627326
1653.33887,0.6256725192
1652.05322,0.6425202489
1650.76758,0.6533511281
1649.48193,0.6586224437
1648.19629,0.6637043357
1646.91064,0.6719377637
1645.62500,0.6822017431
1644.33936,0.6900011301
1643.05371,0.6945360899
1641.76807,0.6977145672
1640.48242,0.7005351782
1639.19678,0.7029294372
1637.91113,0.7048632503
1636.62549,0.7067427039
1635.33984,0.7082465887
1634.05420,0.7079205513
1632.76855,0.7057048082
1631.48291,0.7025163770
1630.19727,0.6985501051
1628.91162,0.6936067939
1627.62598,0.6877365112
1626.34033,0.6812065840
1625.05469,0.6738730669
1623.76904,0.6650593877
1622.48340,0.6546977758
1621.19775,0.6442254186
1619.91211,0.6348246336
1618.62646,0.6256656051
1617.34082,0.6145631075
1616.05518,0.6007326245
1614.76953,0.5869026184
1613.48389,0.5750725269
1612.19824,0.5642306209
1610.91260,0.5530550480
1609.62695,0.5411462784
1608.34131,0.5288122892
1607.05566,0.5166873336
1605.77002,0.5052536130
1604.48438,0.4944164157
1603.19873,0.4837083817
1601.91309,0.4729327261
1600.62744,0.4623743892
1599.34180,0.4523730576
1598.05615,0.4429678321
1596.77051,0.4339460731
1595.48486,0.4250628948
1594.19922,0.4162949622
1592.91357,0.4078613222
1591.62793,0.3999034762
1590.34229,0.3923377991
1589.05664,0.3850724995
1587.77100,0.3781061471
1586.48535,0.3714065254
1585.19971,0.3649315834
1583.91406,0.3587322235
1582.62842,0.3528813720
1581.34277,0.3474228978
1580.05713,0.3424249589
1578.77148,0.3378276229
1577.48584,0.3331417739
1576.20020,0.3277189434
1574.91455,0.3220462203
1573.62891,0.3174244165
1572.34326,0.3139442801
1571.05762,0.3108282685
1569.77197,0.3073923886
1568.48633,0.3035586476
1567.20068,0.2998269796
1565.91504,0.2964625955
1564.62939,0.2933835089
1563.34375,0.2906063795
1562.05811,0.2882443666
1560.77246,0.2861622274
1559.48682,0.2836772203
1558.20117,0.2801475525
1556.91553,0.2767674923
1555.62988,0.2742761374
1554.34424,0.2720481753
1553.05859,0.2698274851
1551.77295,0.2677043676
1550.48730,0.2656829059
1549.20166,0.2636899948
1547.91602,0.2617892325
1546.63037,0.2601025999
1545.34473,0.2586308718
1544.05908,0.2573027015
1542.77344,0.2560793161
1541.48779,0.2548063397
1540.20215,0.2529948652
1538.91650,0.2505936921
1537.63086,0.2484136373
1536.34521,0.2467505932
1535.05957,0.2454155535
1533.77393,0.2441685796
1532.48828,0.2428200394
1531.20264,0.2414123863
1529.91699,0.2401492596
1528.63135,0.2390962690
1527.34570,0.2381307036
1526.06006,0.2370762825
1524.77441,0.2359105051
1523.48877,0.2348095030
1522.20313,0.2339651585
1520.91748,0.2333785295
1519.63184,0.2328005135
1518.34619,0.2320296019
1517.06055,0.2310691327
1515.77490,0.2300132513
1514.48926,0.2289891243
1513.20361,0.2281072140
1511.91797,0.2274055779
1510.63232,0.2268674821
1509.34668,0.2264919579
1508.06104,0.2262962461
1506.77539,0.2260006815
1505.48975,0.2250631750
1504.20410,0.2237934917
1502.91846,0.2227165401
1501.63281,0.2219248861
1500.34717,0.2213615328
1499.06152,0.2209632844
1497.77588,0.2206299156
1496.49023,0.2201636136
1495.20459,0.2194374353
1493.91895,0.2185875177
1492.63330,0.2178272754
1491.34766,0.2172771394
1490.06201,0.2169405669
1488.77637,0.2166527957
1487.49072,0.2162022144
1486.20508,0.2156124562
1484.91943,0.2150512338
1483.63379,0.2146061808
1482.34814,0.2142431289
1481.06250,0.2138610631
1479.77686,0.2133987397
1478.49121,0.2129107714
1477.20557,0.2125164568
1475.91992,0.2123034596
1474.63428,0.2122808546
1473.34863,0.2123422325
1472.06299,0.2122327834
1470.77734,0.2117717117
1469.49170,0.2111051381
1468.20605,0.2104822099
1466.92041,0.2100575417
1465.63477,0.2098627239
1464.34912,0.2097565532
1463.06348,0.2095141560
1461.77783,0.2090938389
1460.49219,0.2086350173
1459.20654,0.2082936615
1457.92090,0.2081245333
1456.63525,0.2078987658
1455.34961,0.2073453218
1454.06396,0.2066554576
1452.77832,0.2060560584
1451.49268,0.2055759728
1450.20703,0.2051883787
1448.92139,0.2048847824
1447.63574,0.2046374828
1446.35010,0.2043654919
1445.06445,0.2040106654
1443.77881,0.2035978884
1442.49316,0.2031782269
1441.20752,0.2027894855
1439.92188,0.2024873048
1438.63623,0.2023571134
1437.35059,0.2024222612
1436.06494,0.2024849206
1434.77930,0.2022633553
1433.49365,0.2017938346
1432.20801,0.2013047338
1430.92236,0.2009157389
1429.63672,0.2005998343
1428.35107,0.2002913207
1427.06543,0.2000058591
1425.77979,0.1997976899
1424.49414,0.1996258795
1423.20850,0.1993684322
1421.92285,0.1990136802
1420.63721,0.1987376362
1419.35156,0.1986960024
1418.06592,0.1987506449
1416.78027,0.1986012161
1415.49463,0.1982422471
1414.20898,0.1978753805
1412.92334,0.1976255178
1411.63770,0.1974921077
1410.35205,0.1973948777
1409.06641,0.1972601563
1407.78076,0.1971025914
1406.49512,0.1969993114
1405.20947,0.1969751716
1403.92383,0.1969565898
1402.63818,0.1968927085
1401.35254,0.1968470961
1400.06689,0.1969070435
1398.78125,0.1970768720
1397.49561,0.1972816586
1396.20996,0.1974508315
1394.92432,0.1975373626
1393.63867,0.1974971294
1392.35303,0.1973461956
1391.06738,0.1971829087
1389.78174,0.1971161515
1388.49609,0.1971970648
1387.21045,0.1973659992
1385.92480,0.1974768192
1384.63916,0.1974633187
1383.35352,0.1974053234
1382.06787,0.1974055320
1380.78223,0.1974917501
1379.49658,0.1976160109
1378.21094,0.1977239102
1376.92529,0.1978188753
1375.63965,0.1979366243
1374.35400,0.1980529279
1373.06836,0.1980773956
1371.78271,0.1979946047
1370.49707,0.1979018897
1369.21143,0.1978616565
1367.92578,0.1978353411
1366.64014,0.1977870017
1365.35449,0.1977736950
1364.06885,0.1978629678
1362.78320,0.1979978085
1361.49756,0.1980298609
1360.21191,0.1979248673
1358.92627,0.1977960765
1357.64063,0.1977305114
1356.35498,0.1977204680
1355.06934,0.1977152079
1353.78369,0.1976792216
1352.49805,0.1976138502
1351.21240,0.1975496411
1349.92676,0.1975229532
1348.64111,0.1975484490
1347.35547,0.1976085603
1346.06982,0.1976737827
1344.78418,0.1977282465
1343.49854,0.1977782696
1342.21289,0.1978491843
1340.92725,0.1979676932
1339.64160,0.1981226206
1338.35596,0.1982428133
1337.07031,0.1982603967
1335.78467,0.1981838942
1334.49902,0.1980728358
1333.21338,0.1979803741
1331.92773,0.1979349703
1330.64209,0.1979381442
1329.35645,0.1979669333
1328.07080,0.1979967803
1326.78516,0.1980260164
1325.49951,0.1980649531
1324.21387,0.1981191486
1322.92822,0.1982006878
1321.64258,0.1983321905
1320.35693,0.1985141337
1319.07129,0.1987058669
1317.78564,0.1988672018
1316.50000,0.1989971995
1315.21436,0.1991071850
1313.92871,0.1991876066
1312.64307,0.1992253214
1311.35742,0.1992365420
1310.07178,0.1992607117
1308.78613,0.1993248463
1307.50049,0.1994238198
1306.21484,0.1995382309
1304.92920,0.1996641457
1303.64355,0.1998078674
1302.35791,0.1999523193
1301.07227,0.2000582069
1299.78662,0.2001114339
1298.50098,0.2001400292
1297.21533,0.2001704872
1295.92969,0.2001958638
1294.64404,0.2001987696
1293.35840,0.2001884282
1292.07275,0.2001945823
1290.78711,0.2002353370
1289.50146,0.2003037781
1288.21582,0.2003862560
1286.93018,0.2004805952
1285.64453,0.2005843222
1284.35889,0.2006802559
1283.07324,0.2007570863
1281.78760,0.2008258551
1280.50195,0.2008863688
1279.21631,0.2008999437
1277.93066,0.2008374035
1276.64502,0.2007416785
1275.35938,0.2006961107
1274.07373,0.2007385641
1272.78809,0.2008351535
1271.50244,0.2009334415
1270.21680,0.2010155618
1268.93115,0.2010906041
1267.64551,0.2011478245
1266.35986,0.2011357248
1265.07422,0.2010109574
1263.78857,0.2008025050
1262.50293,0.2005959004
1261.21729,0.2004485130
1259.93164,0.2003485709
1258.64600,0.2002625912
1257.36035,0.2001850605
1256.07471,0.2001263648
1254.78906,0.2000781894
1253.50342,0.2000118792
1252.21777,0.1999093294
1250.93213,0.1997849047
1249.64648,0.1996663809
1248.36084,0.1995581985
1247.07520,0.1994393468
1245.78955,0.1993010193
1244.50391,0.1991595179
1243.21826,0.1990255117
1241.93262,0.1988867670
1240.64697,0.1987312585
1239.36133,0.1985630691
1238.07568,0.1983847916
1236.79004,0.1981914937
1235.50439,0.1979922503
1234.21875,0.1978137791
1232.93311,0.1976687312
1231.64746,0.1975368708
1230.36182,0.1973911822
1229.07617,0.1972385198
1227.79053,0.1971205175
1226.50488,0.1970662326
1225.21924,0.1970478594
1223.93359,0.1969963759
1222.64795,0.1968734860
1221.36230,0.1967195868
1220.07666,0.1966189891
1218.79102,0.1966128349
1217.50537,0.1966564357
1216.21973,0.1966704279
1214.93408,0.1966243535
1213.64844,0.1965575069
1212.36279,0.1965228021
1211.07715,0.1965290010
1209.79150,0.1965381056
1208.50586,0.1965013444
1207.22021,0.1963964850
1205.93457,0.1962457597
1204.64893,0.1961026639
1203.36328,0.1960099339
1202.07764,0.1959670037
1200.79199,0.1959446818
1199.50635,0.1959296018
1198.22070,0.1959423274
1196.93506,0.1960068345
1195.64941,0.1961079091
1194.36377,0.1961911768
1193.07813,0.1962184310
1191.79248,0.1962192059
1190.50684,0.1962671578
1189.22119,0.1963982284
1187.93555,0.1965660602
1186.64990,0.1966927946
1185.36426,0.1967416555
1184.07861,0.1967294812
1182.79297,0.1966900975
1181.50732,0.1966605037
1180.22168,0.1966830939
1178.93604,0.1967869699
1177.65039,0.1969626099
1176.36475,0.1971723586
1175.07910,0.1973866075
1173.79346,0.1976016015
1172.50781,0.1978311241
1171.22217,0.1980916560
1169.93652,0.1983833164
1168.65088,0.1986827403
1167.36523,0.1989698112
1166.07959,0.1992595941
1164.79395,0.1995833516
1163.50830,0.1999309957
1162.22266,0.2002392858
1160.93701,0.2004551739
1159.65137,0.2005974203
1158.36572,0.2007379532
1157.08008,0.2009296119
1155.79443,0.2011615634
1154.50879,0.2013807893
1153.22314,0.2015448362
1151.93750,0.2016538829
1150.65186,0.2017395347
1149.36621,0.2018377483
1148.08057,0.2019642144
1146.79492,0.2021034509
1145.50928,0.2022197247
1144.22363,0.2022888064
1142.93799,0.2023268789
1141.65234,0.2023863494
1140.36670,0.2025131434
1139.08105,0.2027049065
1137.79541,0.2029151320
1136.50977,0.2031020224
1135.22412,0.2032672912
1133.93848,0.2034364343
1132.65283,0.2036120892
1131.36719,0.2037655115
1130.08154,0.2038725466
1128.79590,0.2039426267
1127.51025,0.2040145546
1126.22461,0.2041329592
1124.93896,0.2043199986
1123.65332,0.2045573741
1122.36768,0.2047953606
1121.08203,0.2049864382
1119.79639,0.2051123232
1118.51074,0.2051920295
1117.22510,0.2052748054
1115.93945,0.2054099143
1114.65381,0.2056003362
1113.36816,0.2057932466
1112.08252,0.2059389204
1110.79688,0.2060463130
1109.51123,0.2061635703
1108.22559,0.2063218057
1106.93994,0.2065200508
1105.65430,0.2067489922
1104.36865,0.2070072591
1103.08301,0.2073077112
1101.79736,0.2076754570
1100.51172,0.2081146687
1099.22607,0.2085736841
1097.94043,0.2089735568
1096.65479,0.2092884630
1095.36914,0.2095630467
1094.08350,0.2098406106
1092.79785,0.2101134360
1091.51221,0.2103624791
1090.22656,0.2106090784
1088.94092,0.2108950019
1087.65527,0.2112330645
1086.36963,0.2115957737
1085.08398,0.2119456828
1083.79834,0.2122665495
1082.51270,0.2125763595
1081.22705,0.2129133046
1079.94141,0.2132961750
1078.65576,0.2137001753
1077.37012,0.2140857577
1076.08447,0.2144493759
1074.79883,0.2148378938
1073.51318,0.2153049111
1072.22754,0.2158517838
1070.94189,0.2164107263
1069.65625,0.2168959379
1068.37061,0.2172844708
1067.08496,0.2176393569
1065.79932,0.2180368453
1064.51367,0.2184830457
1063.22803,0.2189228982
1061.94238,0.2193224728
1060.65674,0.2197093070
1059.37109,0.2201301157
1058.08545,0.2205974907
1056.79980,0.2210871428
1055.51416,0.2215684354
1054.22852,0.2220333070
1052.94287,0.2225034088
1051.65723,0.2230163515
1050.37158,0.2235937566
1049.08594,0.2242260724
1047.80029,0.2248835266
1046.51465,0.2255344093
1045.22900,0.2261527628
1043.94336,0.2267246693
1042.65771,0.2272613049
1041.37207,0.2278003544
1040.08643,0.2283880264
1038.80078,0.2290496081
1037.51514,0.2297729254
1036.22949,0.2305139601
1034.94385,0.2312211692
1033.65820,0.2318621278
1032.37256,0.2324418873
1031.08691,0.2330119014
1029.80127,0.2336553484
1028.51563,0.2344374359
1027.22998,0.2353497744
1025.94434,0.2363137305
1024.65869,0.2372426987
1023.37305,0.2380968928
1022.08740,0.2388852686
1020.80176,0.2396412194
1019.51611,0.2404076755
1018.23047,0.2412304580
1016.94482,0.2421441823
1015.65918,0.2431482524
1014.37354,0.2442010641
1013.08789,0.2452555299
1011.80225,0.2463037223
1010.51660,0.2473698705
1009.23096,0.2484617382
1007.94531,0.2495492101
1006.65967,0.2505936921
1005.37402,0.2515818477
1004.08838,0.2525289655
1002.80273,0.2534721792
1001.51709,0.2544524372
1000.23145,0.2554914057
998.94580,0.2565856576
997.66016,0.2577269375
996.37451,0.2589086294
995.08887,0.2601098716
993.80322,0.2613004148
992.51758,0.2624751329
991.23193,0.2636664808
989.94629,0.2649134994
988.66064,0.2662287652
987.37500,0.2675983906
986.08936,0.2690082490
984.80371,0.2704660892
983.51807,0.2719877958
982.23242,0.2735612988
980.94678,0.2751413286
979.66113,0.2766945064
978.37549,0.2782382667
977.08984,0.2798237503
975.80420,0.2814936042
974.51855,0.2832545340
973.23291,0.2850712836
971.94727,0.2868899107
970.66162,0.2887070775
969.37598,0.2906072140
968.09033,0.2926796675
966.80469,0.2948958874
965.51904,0.2971242368
964.23340,0.2992817760
962.94775,0.3014225066
961.66211,0.3036522567
960.37646,0.3059996665
959.09082,0.3084065616
957.80518,0.3108161688
956.51953,0.3132268190
955.23389,0.3156611919
953.94824,0.3181192875
952.66260,0.3205786645
951.37695,0.3230316937
950.09131,0.3255138695
948.80566,0.3280873001
947.52002,0.3307874501
946.23438,0.3335821927
944.94873,0.3364017606
943.66309,0.3392135799
942.37744,0.3420493901
941.09180,0.3449544013
939.80615,0.3479343057
938.52051,0.3509611785
937.23486,0.3539992571
935.94922,0.3570232689
934.66357,0.3600427806
933.37793,0.3631163239
932.09229,0.3663046062
930.80664,0.3695933819
929.52100,0.3728973866
928.23535,0.3761559427
926.94971,0.3793992698
925.66406,0.3827192783
924.37842,0.3862011731
923.09277,0.3898805082
921.80713,0.3937261701
920.52148,0.3976611793
919.23584,0.4016341269
917.95020,0.4056656063
916.66455,0.4097945094
915.37891,0.4139967263
914.09326,0.4182141423
912.80762,0.4224616885
911.52197,0.4268403053
910.23633,0.4314213693
908.95068,0.4361614883
907.66504,0.4409576952
906.37939,0.4457603097
905.09375,0.4505958259
903.80811,0.4554989338
902.52246,0.4604652524
901.23682,0.4654899836
899.95117,0.4706228077
