3999.64014,-0.1530511230
3998.35449,-0.1532429904
3997.06885,-0.1533570588
3995.78320,-0.1533623785
3994.49756,-0.1533313245
3993.21191,-0.1533278823
3991.92627,-0.1533415616
3990.64063,-0.1533312201
3989.35498,-0.1532876641
3988.06934,-0.1532402188
3986.78369,-0.1532260031
3985.49805,-0.1532658190
3984.21240,-0.1533450186
3982.92676,-0.1534082443
3981.64111,-0.1533851475
3980.35547,-0.1532427669
3979.06982,-0.1530251205
3977.78418,-0.1528379470
3976.49854,-0.1527731717
3975.21289,-0.1528235972
3973.92725,-0.1528753042
3972.64160,-0.1528125256
3971.35596,-0.1526378095
3970.07031,-0.1524650604
3968.78467,-0.1523970068
3967.49902,-0.1524321139
3966.21338,-0.1524895132
3964.92773,-0.1524935812
3963.64209,-0.1524301171
3962.35645,-0.1523429155
3961.07080,-0.1522923410
3959.78516,-0.1523101330
3958.49951,-0.1523906142
3957.21387,-0.1525131613
3955.92822,-0.1526584923
3954.64258,-0.1528020799
3953.35693,-0.1529094130
3952.07129,-0.1529488713
3950.78564,-0.1529149562
3949.50000,-0.1528518498
3948.21436,-0.1528475285
3946.92871,-0.1529662907
3945.64307,-0.1531799436
3944.35742,-0.1533999443
3943.07178,-0.1535846442
3941.78613,-0.1537799388
3940.50049,-0.1540435851
3939.21484,-0.1543629020
3937.92920,-0.1546677649
3936.64355,-0.1548954546
3935.35791,-0.1550242603
3934.07227,-0.1550676376
3932.78662,-0.1550713927
3931.50098,-0.1551157832
3930.21533,-0.1552750319
3928.92969,-0.1555314809
3927.64404,-0.1557582468
3926.35840,-0.1558492035
3925.07275,-0.1558695287
3923.78711,-0.1559992135
3922.50146,-0.1562930197
3921.21582,-0.1565685570
3919.93018,-0.1565968841
3918.64453,-0.1563666314
3917.35889,-0.1561071873
3916.07324,-0.1560611427
3914.78760,-0.1562708616
3913.50195,-0.1565853059
3912.21631,-0.1568346024
3910.93066,-0.1569584459
3909.64502,-0.1569785476
3908.35938,-0.1568988562
3907.07373,-0.1566806734
3905.78809,-0.1563229561
3904.50244,-0.1559240222
3903.21680,-0.1556251198
3901.93115,-0.1555061936
3900.64551,-0.1555751264
3899.35986,-0.1558308005
3898.07422,-0.1562590450
3896.78857,-0.1567488164
3895.50293,-0.1570881307
3894.21729,-0.1571226865
3892.93164,-0.1569264233
3891.64600,-0.1567680389
3890.36035,-0.1568522900
3889.07471,-0.1571086943
3887.78906,-0.1572908163
3886.50342,-0.1572659016
3885.21777,-0.1571279764
3883.93213,-0.1570125967
3882.64648,-0.1569273621
3881.36084,-0.1568590701
3880.07520,-0.1569199413
3878.78955,-0.1572092772
3877.50391,-0.1575907916
3876.21826,-0.1578046083
3874.93262,-0.1577886492
3873.64697,-0.1577283442
3872.36133,-0.1577824652
3871.07568,-0.1579071730
3869.79004,-0.1579931825
3868.50439,-0.1580295712
3867.21875,-0.1580534279
3865.93311,-0.1580552608
3864.64746,-0.1580376476
3863.36182,-0.1580881029
3862.07617,-0.1582811177
3860.79053,-0.1585336626
3859.50488,-0.1586391181
3858.21924,-0.1584233046
3856.93359,-0.1578302383
3855.64795,-0.1569514424
3854.36230,-0.1560819149
3853.07666,-0.1556463987
3851.79102,-0.1558666080
3850.50537,-0.1565231681
3849.21973,-0.1571721733
3847.93408,-0.1575210541
3846.64844,-0.1575373858
3845.36279,-0.1573108137
3844.07715,-0.1569370478
3842.79150,-0.1565034837
3841.50586,-0.1560910940
3840.22021,-0.1557672918
3838.93457,-0.1555877179
3837.64893,-0.1555685699
3836.36328,-0.1556457579
3835.07764,-0.1557025462
3833.79199,-0.1556585282
3832.50635,-0.1555147320
3831.22070,-0.1553176045
3829.93506,-0.1550981700
3828.64941,-0.1548646241
3827.36377,-0.1546489447
3826.07813,-0.1545051038
3824.79248,-0.1544096023
3823.50684,-0.1542298794
3822.22119,-0.1538902074
3820.93555,-0.1535238922
3819.64990,-0.1533335745
3818.36426,-0.1533382982
3817.07861,-0.1534083784
3815.79297,-0.1534975469
3814.50732,-0.1536777467
3813.22168,-0.1539567262
3811.93604,-0.1541924626
3810.65039,-0.1542132199
3809.36475,-0.1539632082
3808.07910,-0.1535495669
3806.79346,-0.1531551182
3805.50781,-0.1528669000
3804.22217,-0.1526077092
3802.93652,-0.1523047388
3801.65088,-0.1520561725
3800.36523,-0.1520141959
3799.07959,-0.1521477401
3797.79395,-0.1522792280
3796.50830,-0.1523340642
3795.22266,-0.1523969024
3793.93701,-0.1525130868
3792.65137,-0.1525881886
3791.36572,-0.1525235176
3790.08008,-0.1523310691
3788.79443,-0.1520582587
3787.50879,-0.1517127454
3786.22314,-0.1513355672
3784.93750,-0.1510435939
3783.65186,-0.1508910805
3782.36621,-0.1507681459
3781.08057,-0.1505536884
3779.79492,-0.1503155380
3778.50928,-0.1502302587
3777.22363,-0.1503302604
3775.93799,-0.1504450291
3774.65234,-0.1503838152
3773.36670,-0.1500912607
3772.08105,-0.1496493816
3770.79541,-0.1492122412
3769.50977,-0.1489249766
3768.22412,-0.1488232911
3766.93848,-0.1488137245
3765.65283,-0.1487808228
3764.36719,-0.1486798674
3763.08154,-0.1484930068
3761.79590,-0.1481759548
3760.51025,-0.1477346867
3759.22461,-0.1473118365
3757.93896,-0.1470797211
3756.65332,-0.1470258236
3755.36768,-0.1469223350
3754.08203,-0.1465452909
3752.79639,-0.1459079534
3751.51074,-0.1452803314
3750.22510,-0.1449521780
3748.93945,-0.1449266970
3747.65381,-0.1448965669
3746.36816,-0.1445980221
3745.08252,-0.1441471279
3743.79688,-0.1439324170
3742.51123,-0.1441448182
3741.22559,-0.1445313692
3739.93994,-0.1446554065
3738.65430,-0.1442807615
3737.36865,-0.1435131729
3736.08301,-0.1426938623
3734.79736,-0.1421624869
3733.51172,-0.1420389414
3732.22607,-0.1421918422
3730.94043,-0.1423799247
3729.65479,-0.1423916370
3728.36914,-0.1421098858
3727.08350,-0.1415567547
3725.79785,-0.1408907324
3724.51221,-0.1402889043
3723.22656,-0.1398136318
3721.94092,-0.1394241005
3720.65527,-0.1390793771
3719.36963,-0.1387598962
3718.08398,-0.1384155899
3716.79834,-0.1379482597
3715.51270,-0.1372572631
3714.22705,-0.1363165975
3712.94141,-0.1352515817
3711.65576,-0.1343101263
3710.37012,-0.1336809546
3709.08447,-0.1333305240
3707.79883,-0.1330616325
3706.51318,-0.1326857805
3705.22754,-0.1320931017
3703.94189,-0.1312494278
3702.65625,-0.1302259564
3701.37061,-0.1291874647
3700.08496,-0.1282489002
3698.79932,-0.1273615509
3697.51367,-0.1264076084
3696.22803,-0.1253538430
3694.94238,-0.1242227405
3693.65674,-0.1229551286
3692.37109,-0.1214236394
3691.08545,-0.1196253300
3689.79980,-0.1177766174
3688.51416,-0.1161376089
3687.22852,-0.1147552952
3685.94287,-0.1134250164
3684.65723,-0.1118835062
3683.37158,-0.1099856794
3682.08594,-0.1077377945
3680.80029,-0.1052249074
3679.51465,-0.1025108844
3678.22900,-0.0995836332
3676.94336,-0.0964313745
3675.65771,-0.0931785926
3674.37207,-0.0900365412
3673.08643,-0.0870407894
3671.80078,-0.0839712322
3670.51514,-0.0806334466
3669.22949,-0.0770992264
3667.94385,-0.0735550225
3666.65820,-0.0700134337
3665.37256,-0.0663096458
3664.08691,-0.0623040199
3662.80127,-0.0579702221
3661.51563,-0.0533551760
3660.22998,-0.0485277027
3658.94434,-0.0435298905
3657.65869,-0.0383585393
3656.37305,-0.0330339149
3655.08740,-0.0276344046
3653.80176,-0.0221787710
3652.51611,-0.0165435523
3651.23047,-0.0106097395
3649.94482,-0.0044575958
3648.65918,0.0016643135
3647.37354,0.0075425929
3646.08789,0.0131349936
3644.80225,0.0185668617
3643.51660,0.0240480769
3642.23096,0.0297587812
3640.94531,0.0357608013
3639.65967,0.0419868007
3638.37402,0.0483032130
3637.08838,0.0545997843
3635.80273,0.0608559921
3634.51709,0.0671285093
3633.23145,0.0734953731
3631.94580,0.0800336897
3630.66016,0.0867854059
3629.37451,0.0936505720
3628.08887,0.1003698558
3626.80322,0.1067539901
3625.51758,0.1128957868
3624.23193,0.1190643907
3622.94629,0.1254642010
3621.66064,0.1321528703
3620.37500,0.1390666515
3619.08936,0.1460451782
3617.80371,0.1529168636
3616.51807,0.1596317887
3615.23242,0.1662558019
3613.94678,0.1728559583
3612.66113,0.1794738472
3611.37549,0.1861763895
3610.08984,0.1930146366
3608.80420,0.1999324709
3607.51855,0.2067938447
3606.23291,0.2135287821
3604.94727,0.2202274650
3603.66162,0.2270786017
3602.37598,0.2341937572
3601.09033,0.2414878160
3599.80469,0.2487658411
3598.51904,0.2559403479
3597.23340,0.2631142139
3595.94775,0.2704380155
3594.66211,0.2779459953
3593.37646,0.2855707407
3592.09082,0.2932801247
3590.80518,0.3011274338
3589.51953,0.3091208637
3588.23389,0.3171052039
3586.94824,0.3248929977
3585.66260,0.3325242698
3584.37695,0.3402573764
3583.09131,0.3482721150
3581.80566,0.3565054536
3580.52002,0.3647971451
3579.23438,0.3730964065
3577.94873,0.3814795315
3576.66309,0.3900348544
3575.37744,0.3987734914
3574.09180,0.4076312780
3572.80615,0.4165543318
3571.52051,0.4255951047
3570.23486,0.4348929822
3568.94922,0.4445211589
3567.66357,0.4543377459
3566.37793,0.4640299678
3565.09229,0.4733715951
3563.80664,0.4824274778
3562.52100,0.4914748967
3561.23535,0.5007773042
3559.94971,0.5104569197
3558.66406,0.5204790235
3557.37842,0.5306589603
3556.09277,0.5407707095
3554.80713,0.5507432818
3553.52148,0.5606669188
3552.23584,0.5705829263
3550.95020,0.5804540515
3549.66455,0.5904220939
3548.37891,0.6008439660
3547.09326,0.6118831038
3545.80762,0.6231987476
3544.52197,0.6342315078
3543.23633,0.6447587609
3541.95068,0.6550675631
3540.66504,0.6656152606
3539.37939,0.6765959859
3538.09375,0.6878348589
3536.80811,0.6990212798
3535.52246,0.7099915147
3534.23682,0.7208001018
3532.95117,0.7316450477
3531.66553,0.7427911758
3530.37988,0.7544198632
3529.09424,0.7664347291
3527.80859,0.7784672976
3526.52295,0.7902223468
3525.23730,0.8017841578
3523.95166,0.8135246634
3522.66602,0.8256876469
3521.38037,0.8381618261
3520.09473,0.8506623507
3518.80908,0.8630757332
3517.52344,0.8755617142
3516.23779,0.8883631825
3514.95215,0.9015803337
3513.66650,0.9150407314
3512.38086,0.9283406138
3511.09521,0.9411002398
3509.80957,0.9532587528
3508.52393,0.9650990367
3507.23828,0.9770256281
3505.95264,0.9893639088
3504.66699,1.0022683144
3503.38135,1.0155404806
3502.09570,1.0285516977
3500.81006,1.0406161547
3499.52441,1.0515867472
3498.23877,1.0621184111
3496.95313,1.0731152296
3495.66748,1.0848612785
3494.38184,1.0966639519
3493.09619,1.1075679064
3491.81055,1.1174969673
3490.52490,1.1274731159
3489.23926,1.1385669708
3487.95361,1.1506974697
3486.66797,1.1627068520
3485.38232,1.1735579967
3484.09668,1.1832109690
3482.81104,1.1921627522
3481.52539,1.2006114721
3480.23975,1.2085890770
3478.95410,1.2165874243
3477.66846,1.2252551317
3476.38281,1.2345094681
3475.09717,1.2435575724
3473.81152,1.2519024611
3472.52588,1.2599843740
3471.24023,1.2687571049
3469.95459,1.2789484262
3468.66895,1.2905155420
3467.38330,1.3025779724
3466.09766,1.3139461279
3464.81201,1.3240962029
3463.52637,1.3333297968
3462.24072,1.3422633410
3460.95508,1.3512386084
3459.66943,1.3603059053
3458.38379,1.3692202568
3457.09814,1.3777420521
3455.81250,1.3863444328
3454.52686,1.3962335587
3453.24121,1.4078395367
3451.95557,1.4197444916
3450.66992,1.4300589561
3449.38428,1.4386746883
3448.09863,1.4469317198
3446.81299,1.4555032253
3445.52734,1.4634438753
3444.24170,1.4698215723
3442.95605,1.4748799801
3441.67041,1.4794845581
3440.38477,1.4835493565
3439.09912,1.4860907793
3437.81348,1.4866298437
3436.52783,1.4860723019
3435.24219,1.4854058027
3433.95654,1.4842456579
3432.67090,1.4815659523
3431.38525,1.4778071642
3430.09961,1.4746551514
3428.81396,1.4729099274
3427.52832,1.4718760252
3426.24268,1.4709571600
3424.95703,1.4703294039
3423.67139,1.4701341391
3422.38574,1.4700914621
3421.10010,1.4702510834
3419.81445,1.4706813097
3418.52881,1.4710708857
3417.24316,1.4713793993
3415.95752,1.4726207256
3414.67188,1.4751491547
3413.38623,1.4775201082
3412.10059,1.4780460596
3410.81494,1.4776020050
3409.52930,1.4789264202
3408.24365,1.4839653969
3406.95801,1.4924978018
3405.67236,1.5026237965
3404.38672,1.5121537447
3403.10107,1.5197585821
3401.81543,1.5247421265
3400.52979,1.5268235207
3399.24414,1.5266804695
3397.95850,1.5266189575
3396.67285,1.5289916992
3395.38721,1.5336947441
3394.10156,1.5383404493
3392.81592,1.5412088633
3391.53027,1.5427297354
3390.24463,1.5437099934
3388.95898,1.5433795452
3387.67334,1.5409075022
3386.38770,1.5370990038
3385.10205,1.5341706276
3383.81641,1.5331215858
3382.53076,1.5326429605
3381.24512,1.5303293467
3379.95947,1.5248770714
3378.67383,1.5162639618
3377.38818,1.5053319931
3376.10254,1.4934873581
3374.81689,1.4826892614
3373.53125,1.4744083881
3372.24561,1.4686050415
3370.95996,1.4638381004
3369.67432,1.4584991932
3368.38867,1.4517362118
3367.10303,1.4436159134
3365.81738,1.4346568584
3364.53174,1.4253946543
3363.24609,1.4160528183
3361.96045,1.4064700603
3360.67480,1.3964096308
3359.38916,1.3864932060
3358.10352,1.3778518438
3356.81787,1.3709081411
3355.53223,1.3646175861
3354.24658,1.3576580286
3352.96094,1.3497973680
3351.67529,1.3419696093
3350.38965,1.3348571062
3349.10400,1.3281970024
3347.81836,1.3211464882
3346.53271,1.3133180141
3345.24707,1.3052498102
3343.96143,1.2976945639
3342.67578,1.2906016111
3341.39014,1.2831174135
3340.10449,1.2746014595
3338.81885,1.2653155327
3337.53320,1.2556656599
3336.24756,1.2454030514
3334.96191,1.2339533567
3333.67627,1.2214819193
3332.39063,1.2089946270
3331.10498,1.1974618435
3329.81934,1.1870886087
3328.53369,1.1773728132
3327.24805,1.1674648523
3325.96240,1.1566411257
3324.67676,1.1446911097
3323.39111,1.1319582462
3322.10547,1.1188272238
3320.81982,1.1053415537
3319.53418,1.0914502144
3318.24854,1.0774805546
3316.96289,1.0640918016
3315.67725,1.0517494678
3314.39160,1.0402742624
3313.10596,1.0288385153
3311.82031,1.0165259838
3310.53467,1.0030249357
3309.24902,0.9889110923
3307.96338,0.9751698971
3306.67773,0.9624381661
3305.39209,0.9506624341
3304.10645,0.9393320084
3302.82080,0.9279821515
3301.53516,0.9164876342
3300.24951,0.9049699306
3298.96387,0.8934991360
3297.67822,0.8820222616
3296.39258,0.8705255389
3295.10693,0.8591937423
3293.82129,0.8482515812
3292.53564,0.8376810551
3291.25000,0.8271259665
3289.96436,0.8162235022
3288.67871,0.8050166965
3287.39307,0.7939626575
3286.10742,0.7834336758
3284.82178,0.7733117342
3283.53613,0.7631495595
3282.25049,0.7527020574
3280.96484,0.7421625257
3279.67920,0.7318843007
3278.39355,0.7219807506
3277.10791,0.7122576237
3275.82227,0.7024663091
3274.53662,0.6925157309
3273.25098,0.6824353933
3271.96533,0.6722341180
3270.67969,0.6619061232
3269.39404,0.6515151858
3268.10840,0.6412106752
3266.82275,0.6311573386
3265.53711,0.6214689612
3264.25146,0.6121368408
3262.96582,0.6029856801
3261.68018,0.5937871337
3260.39453,0.5844724774
3259.10889,0.5751854181
3257.82324,0.5660500526
3256.53760,0.5569902062
3255.25195,0.5478497744
3253.96631,0.5386282802
3252.68066,0.5294899344
3251.39502,0.5205739141
3250.10938,0.5118963718
3248.82373,0.5034481883
3247.53809,0.4952515066
3246.25244,0.4872747958
3244.96680,0.4793814421
3243.68115,0.4714671075
3242.39551,0.4635962844
3241.10986,0.4559118152
3239.82422,0.4484407604
3238.53857,0.4410886168
3237.25293,0.4338023067
3235.96729,0.4266259968
3234.68164,0.4195820987
3233.39600,0.4126009643
3232.11035,0.4056165814
3230.82471,0.3986702859
3229.53906,0.3918600678
3228.25342,0.3852212429
3226.96777,0.3786843121
3225.68213,0.3721569777
3224.39648,0.3656155765
3223.11084,0.3591178358
3221.82520,0.3527225852
3220.53955,0.3464101553
3219.25391,0.3400942385
3217.96826,0.3337199986
3216.68262,0.3273447454
3215.39697,0.3210959136
3214.11133,0.3150584400
3212.82568,0.3092178702
3211.54004,0.3034924865
3210.25439,0.2977908552
3208.96875,0.2920545042
3207.68311,0.2862856388
3206.39746,0.2805411518
3205.11182,0.2748786509
3203.82617,0.2693199515
3202.54053,0.2638813257
3201.25488,0.2586059570
3199.96924,0.2535195053
3198.68359,0.2485710829
3197.39795,0.2436718494
3196.11230,0.2387859523
3194.82666,0.2339509875
3193.54102,0.2292141765
3192.25537,0.2245891988
3190.96973,0.2200664878
3189.68408,0.2156311572
3188.39844,0.2112714350
3187.11279,0.2070004195
3185.82715,0.2028672993
3184.54150,0.1989122629
3183.25586,0.1950957328
3181.97021,0.1913008541
3180.68457,0.1874289811
3179.39893,0.1834866703
3178.11328,0.1795660257
3176.82764,0.1757559031
3175.54199,0.1720909923
3174.25635,0.1685642004
3172.97070,0.1651327014
3171.68506,0.1617102325
3170.39941,0.1582078785
3169.11377,0.1546149850
3167.82813,0.1510089785
3166.54248,0.1474590003
3165.25684,0.1439475268
3163.97119,0.1404177248
3162.68555,0.1368686855
3161.39990,0.1333569437
3160.11426,0.1299196482
3158.82861,0.1265352964
3157.54297,0.1231707707
3156.25732,0.1198287532
3154.97168,0.1165203452
3153.68604,0.1132108867
3152.40039,0.1098393425
3151.11475,0.1064065844
3149.82910,0.1030136049
3148.54346,0.0997718275
3147.25781,0.0966879874
3145.97217,0.0936729312
3144.68652,0.0906577259
3143.40088,0.0876592249
3142.11523,0.0847291648
3140.82959,0.0818841308
3139.54395,0.0791151226
3138.25830,0.0764367878
3136.97266,0.0738890991
3135.68701,0.0714901835
3134.40137,0.0692109317
3133.11572,0.0669982433
3131.83008,0.0648105145
3130.54443,0.0626280904
3129.25879,0.0604515560
3127.97314,0.0583038740
3126.68750,0.0562232360
3125.40186,0.0542358644
3124.11621,0.0523373485
3122.83057,0.0505033880
3121.54492,0.0487075709
3120.25928,0.0469218865
3118.97363,0.0451178998
3117.68799,0.0432877652
3116.40234,0.0414551534
3115.11670,0.0396532342
3113.83105,0.0378967524
3112.54541,0.0361757874
3111.25977,0.0344634652
3109.97412,0.0327177532
3108.68848,0.0308993142
3107.40283,0.0290028788
3106.11719,0.0270679910
3104.83154,0.0251484830
3103.54590,0.0232695416
3102.26025,0.0214104950
3100.97461,0.0195220299
3099.68896,0.0175621957
3098.40332,0.0155338366
3097.11768,0.0134952813
3095.83203,0.0115227317
3094.54639,0.0096495589
3093.26074,0.0078390390
3091.97510,0.0060195266
3090.68945,0.0041471003
3089.40381,0.0022434455
3088.11816,0.0003854578
3086.83252,-0.0013477564
3085.54688,-0.0029346431
3084.26123,-0.0044191615
3082.97559,-0.0058511221
3081.68994,-0.0072247633
3080.40430,-0.0085014822
3079.11865,-0.0096735610
3077.83301,-0.0107693616
3076.54736,-0.0118092028
3075.26172,-0.0128035340
3073.97607,-0.0137829548
3072.69043,-0.0147741335
3071.40479,-0.0157428328
3070.11914,-0.0166166592
3068.83350,-0.0173763782
3067.54785,-0.0180801917
3066.26221,-0.0187878814
3064.97656,-0.0195041671
3063.69092,-0.0202081539
3062.40527,-0.0209028609
3061.11963,-0.0216133054
3059.83398,-0.0223609973
3058.54834,-0.0231537893
3057.26270,-0.0239928104
3055.97705,-0.0248793941
3054.69141,-0.0258167163
3053.40576,-0.0267980695
3052.12012,-0.0277946908
3050.83447,-0.0287725553
3049.54883,-0.0297294687
3048.26318,-0.0307005327
3046.97754,-0.0317150094
3045.69189,-0.0327671170
3044.40625,-0.0338423513
3043.12061,-0.0349465497
3041.83496,-0.0360817350
3040.54932,-0.0372080654
3039.26367,-0.0382690057
3037.97803,-0.0392536335
3036.69238,-0.0401957259
3035.40674,-0.0411022045
3034.12109,-0.0419252925
3032.83545,-0.0426275320
3031.54980,-0.0432422794
3030.26416,-0.0438359864
3028.97852,-0.0444279946
3027.69287,-0.0449738279
3026.40723,-0.0454183556
3025.12158,-0.0457388721
3023.83594,-0.0459498614
3022.55029,-0.0460920259
3021.26465,-0.0462105460
3019.97900,-0.0463163368
3018.69336,-0.0463671982
3017.40771,-0.0463040508
3016.12207,-0.0461087450
3014.83643,-0.0458169132
3013.55078,-0.0454863384
3012.26514,-0.0451633036
3010.97949,-0.0448734537
3009.69385,-0.0446236432
3008.40820,-0.0444035977
3007.12256,-0.0441928431
3005.83691,-0.0439721122
3004.55127,-0.0437377430
3003.26563,-0.0435055345
3001.97998,-0.0433028229
3000.69434,-0.0431501791
2999.40869,-0.0430481248
2998.12305,-0.0429812521
2996.83740,-0.0429387689
2995.55176,-0.0429340787
2994.26611,-0.0429970585
2992.98047,-0.0431390218
2991.69482,-0.0433319733
2990.40918,-0.0435354188
2989.12354,-0.0437407382
2987.83789,-0.0439759940
2986.55225,-0.0442669988
2985.26660,-0.0446111262
2983.98096,-0.0449866578
2982.69531,-0.0453690588
2981.40967,-0.0457330458
2980.12402,-0.0460595265
2978.83838,-0.0463564917
2977.55273,-0.0466697179
2976.26709,-0.0470567681
2974.98145,-0.0475403406
2973.69580,-0.0480863489
2972.41016,-0.0486392230
2971.12451,-0.0491782203
2969.83887,-0.0497352965
2968.55322,-0.0503566675
2967.26758,-0.0510509908
2965.98193,-0.0517689772
2964.69629,-0.0524176359
2963.41064,-0.0529001839
2962.12500,-0.0531604886
2960.83936,-0.0532012098
2959.55371,-0.0530520007
2958.26807,-0.0527249612
2956.98242,-0.0522052757
2955.69678,-0.0514746755
2954.41113,-0.0505362079
2953.12549,-0.0494288057
2951.83984,-0.0482337512
2950.55420,-0.0470651723
2949.26855,-0.0460544974
2947.98291,-0.0453486405
2946.69727,-0.0451064222
2945.41162,-0.0454502515
2944.12598,-0.0464132056
2942.84033,-0.0479658805
2941.55469,-0.0501049608
2940.26904,-0.0528789163
2938.98340,-0.0563044287
2937.69775,-0.0602980107
2936.41211,-0.0647265688
2935.12646,-0.0694993511
2933.84082,-0.0745721832
2932.55518,-0.0798725933
2931.26953,-0.0852663293
2929.98389,-0.0906134024
2928.69824,-0.0958355591
2927.41260,-0.1009065807
2926.12695,-0.1057778522
2924.84131,-0.1103233993
2923.55566,-0.1143579185
2922.27002,-0.1177087948
2920.98438,-0.1202566624
2919.69873,-0.1218877062
2918.41309,-0.1223963797
2917.12744,-0.1214819178
2915.84180,-0.1189535335
2914.55615,-0.1150131449
2913.27051,-0.1103009656
2911.98486,-0.1055956408
2910.69922,-0.1014461443
2909.41357,-0.0980405211
2908.12793,-0.0953219831
2906.84229,-0.0931627899
2905.55664,-0.0914642811
2904.27100,-0.0901742429
2902.98535,-0.0892620012
2901.69971,-0.0886773989
2900.41406,-0.0883329585
2899.12842,-0.0881239697
2897.84277,-0.0879696310
2896.55713,-0.0878432095
2895.27148,-0.0877754018
2893.98584,-0.0878138393
2892.70020,-0.0879632458
2891.41455,-0.0881698653
2890.12891,-0.0883689001
2888.84326,-0.0885270610
2887.55762,-0.0886304677
2886.27197,-0.0886688679
2884.98633,-0.0886630043
2883.70068,-0.0886855423
2882.41504,-0.0888220742
2881.12939,-0.0891191065
2879.84375,-0.0895824581
2878.55811,-0.0902025998
2877.27246,-0.0909599811
2875.98682,-0.0918242633
2874.70117,-0.0927691683
2873.41553,-0.0937725976
2872.12988,-0.0947830752
2870.84424,-0.0957190320
2869.55859,-0.0965455994
2868.27295,-0.0973553509
2866.98730,-0.0983430967
2865.70166,-0.0996915922
2864.41602,-0.1015021652
2863.13037,-0.1038256139
2861.84473,-0.1067023799
2860.55908,-0.1101386473
2859.27344,-0.1140726730
2857.98779,-0.1184027717
2856.70215,-0.1230347306
2855.41650,-0.1278784722
2854.13086,-0.1328271180
2852.84521,-0.1377361268
2851.55957,-0.1423025429
2850.27393,-0.1458725929
2848.98828,-0.1475262195
2847.70264,-0.1466627717
2846.41699,-0.1435945928
2845.13135,-0.1394230425
2843.84570,-0.1352978349
2842.56006,-0.1318387985
2841.27441,-0.1291288733
2839.98877,-0.1270268708
2838.70313,-0.1253995150
2837.41748,-0.1241458580
2836.13184,-0.1231439784
2834.84619,-0.1222585365
2833.56055,-0.1214041337
2832.27490,-0.1205786169
2830.98926,-0.1198208705
2829.70361,-0.1191414297
2828.41797,-0.1185010895
2827.13232,-0.1178576350
2825.84668,-0.1172087565
2824.56104,-0.1165721565
2823.27539,-0.1159420386
2821.98975,-0.1153042465
2820.70410,-0.1146926358
2819.41846,-0.1141865924
2818.13281,-0.1138416603
2816.84717,-0.1136595681
2815.56152,-0.1136423573
2814.27588,-0.1138281152
2812.99023,-0.1142462194
2811.70459,-0.1148740500
2810.41895,-0.1156672165
2809.13330,-0.1166001260
2807.84766,-0.1176475883
2806.56201,-0.1187535003
2805.27637,-0.1198537201
2803.99072,-0.1209131181
2802.70508,-0.1219177395
2801.41943,-0.1228419468
2800.13379,-0.1236457676
2798.84814,-0.1242946014
2797.56250,-0.1247706264
2796.27686,-0.1250711977
2794.99121,-0.1251996011
2793.70557,-0.1251455545
2792.41992,-0.1248846278
2791.13428,-0.1244161874
2789.84863,-0.1238017455
2788.56299,-0.1231390983
2787.27734,-0.1224952489
2785.99170,-0.1218930706
2784.70605,-0.1213706210
2783.42041,-0.1210133061
2782.13477,-0.1208990440
2780.84912,-0.1210297421
2779.56348,-0.1213445589
2778.27783,-0.1217905357
2776.99219,-0.1223490760
2775.70654,-0.1229949445
2774.42090,-0.1236526892
2773.13525,-0.1242018640
2771.84961,-0.1245176867
2770.56396,-0.1245153546
2769.27832,-0.1241730750
2767.99268,-0.1235118434
2766.70703,-0.1225374341
2765.42139,-0.1212132275
2764.13574,-0.1195028201
2762.85010,-0.1174167991
2761.56445,-0.1149777099
2760.27881,-0.1121592075
2758.99316,-0.1089165360
2757.70752,-0.1052733436
2756.42188,-0.1013017595
2755.13623,-0.0969958678
2753.85059,-0.0922201201
2752.56494,-0.0867712349
2751.27930,-0.0804019645
2749.99365,-0.0727517679
2748.70801,-0.0633652434
2747.42236,-0.0518645495
2746.13672,-0.0380755924
2744.85107,-0.0218912326
2743.56543,-0.0029959872
2742.27979,0.0192479435
2740.99414,0.0455930978
2739.70850,0.0766192228
2738.42285,0.1126842126
2737.13721,0.1541610956
2735.85156,0.2016257048
2734.56592,0.2558315694
2733.28027,0.3178415596
2731.99463,0.3889632821
2730.70898,0.4705294669
2729.42334,0.5628636479
2728.13770,0.6664589643
2726.85205,0.7814891934
2725.56641,0.9092931151
2724.28076,1.0454293489
2722.99512,1.1937799454
2721.70947,1.3460414410
2720.42383,1.4794442654
2719.13818,1.4768785238
2717.85254,1.4216907024
2716.56689,1.3569176197
2715.28125,1.2979818583
2713.99561,1.2608280182
2712.70996,1.2234116793
2711.42432,1.1918803453
2710.13867,1.1703885794
2708.85303,1.1639763117
2707.56738,1.1629855633
2706.28174,1.1661708355
2704.99609,1.1687122583
2703.71045,1.1688370705
2702.42480,1.1688116789
2701.13916,1.1739462614
2699.85352,1.1846718788
2698.56787,1.1959838867
2697.28223,1.2020440102
2695.99658,1.2018241882
2694.71094,1.1996140480
2693.42529,1.2007672787
2692.13965,1.2049505711
2690.85400,1.2075814009
2689.56836,1.2049815655
2688.28271,1.1992214918
2686.99707,1.1938979626
2685.71143,1.1905761957
2684.42578,1.1877015829
2683.14014,1.1832283735
2681.85449,1.1764118671
2680.56885,1.1690876484
2679.28320,1.1632889509
2677.99756,1.1582341194
2676.71191,1.1507483721
2675.42627,1.1406935453
2674.14063,1.1323555708
2672.85498,1.1288757324
2671.56934,1.1280179024
2670.28369,1.1256597042
2668.99805,1.1211895943
2667.71240,1.1167687178
2666.42676,1.1129711866
2665.14111,1.1089606285
2663.85547,1.1051684618
2662.56982,1.1041432619
2661.28418,1.1070249081
2659.99854,1.1142394543
2658.71289,1.1254891157
2657.42725,1.1401897669
2656.14160,1.1555943489
2654.85596,1.1693916321
2653.57031,1.1811726093
2652.28467,1.1928429604
2650.99902,1.2053455114
2649.71338,1.2172236443
2648.42773,1.2267129421
2647.14209,1.2360500097
2645.85645,1.2506533861
2644.57080,1.2724890709
2643.28516,1.2967936993
2641.99951,1.3173654079
2640.71387,1.3333656788
2639.42822,1.3471066952
2638.14258,1.3572943211
2636.85693,1.3613072634
2635.57129,1.3593932390
2634.28564,1.3544714451
2633.00000,1.3469191790
2631.71436,1.3385276794
2630.42871,1.3339471817
2629.14307,1.3400231600
2627.85742,1.3564063311
2626.57178,1.3749773502
2625.28613,1.3849861622
2624.00049,1.3827002048
2622.71484,1.3732882738
2621.42920,1.3654562235
2620.14355,1.3636115789
2618.85791,1.3646292686
2617.57227,1.3612581491
2616.28662,1.3493288755
2615.00098,1.3318556547
2613.71533,1.3156800270
2612.42969,1.3058569431
2611.14404,1.3020421267
2609.85840,1.2977714539
2608.57275,1.2885692120
2607.28711,1.2770282030
2606.00146,1.2699344158
2604.71582,1.2690744400
2603.43018,1.2721679211
2602.14453,1.2778110504
2600.85889,1.2882956266
2599.57324,1.3040430546
2598.28760,1.3220344782
2597.00195,1.3386996984
2595.71631,1.3566383123
2594.43066,1.3824179173
2593.14502,1.4189392328
2591.85938,1.4602868557
2590.57373,1.4990848303
2589.28809,1.5349140167
2588.00244,1.5701062679
2586.71680,1.6006431580
2585.43115,1.6211229563
2584.14551,1.6397565603
2582.85986,1.6710143089
2581.57422,1.7195674181
2580.28857,1.7675981522
2579.00293,1.7409883738
2577.71729,1.6615693569
2576.43164,1.6066318750
2575.14600,1.5966145992
2573.86035,1.5988556147
2572.57471,1.6081749201
2571.28906,1.6235688925
2570.00342,1.6431798935
2568.71777,1.6542520523
2567.43213,1.6578454971
2566.14648,1.6703311205
2564.86084,1.7176852226
2563.57520,1.8009390831
2562.28955,1.8998197317
2561.00391,1.9613863230
2559.71826,1.9582288265
2558.43262,1.9289892912
2557.14697,1.9329127073
2555.86133,1.9668494463
2554.57568,1.9661035538
2553.29004,1.8936420679
2552.00439,1.7789618969
2550.71875,1.6767544746
2549.43311,1.6202319860
2548.14746,1.6067026854
2546.86182,1.6246364117
2545.57617,1.6539602280
2544.29053,1.6770278215
2543.00488,1.6794747114
2541.71924,1.6683055162
2540.43359,1.6615821123
2539.14795,1.6792707443
2537.86230,1.7110360861
2536.57666,1.7499589920
2535.29102,1.7987376451
2534.00537,1.8826879263
2532.71973,1.9862915277
2531.43408,2.0621383190
2530.14844,2.0491654873
2528.86279,1.9799250364
2527.57715,1.9061975479
2526.29150,1.8355324268
2525.00586,1.7678501606
2523.72021,1.7104562521
2522.43457,1.6593657732
2521.14893,1.6036560535
2519.86328,1.5458074808
2518.57764,1.5008848906
2517.29199,1.4751447439
2516.00635,1.4642845392
2514.72070,1.4583641291
2513.43506,1.4522912502
2512.14941,1.4479833841
2510.86377,1.4493899345
2509.57813,1.4586635828
2508.29248,1.4755971432
2507.00684,1.4971181154
2505.72119,1.5204162598
2504.43555,1.5462206602
2503.14990,1.5788024664
2501.86426,1.6157633066
2500.57861,1.6506385803
2499.29297,1.6800273657
2498.00732,1.7089189291
2496.72168,1.7275946140
2495.43604,1.7236541510
2494.15039,1.7091488838
2492.86475,1.7113107443
2491.57910,1.7218276262
2490.29346,1.7277320623
2489.00781,1.7232124805
2487.72217,1.7172098160
2486.43652,1.7060912848
2485.15088,1.6854575872
2483.86523,1.6555967331
2482.57959,1.6311920881
2481.29395,1.6196376085
2480.00830,1.6290080547
2478.72266,1.6594802141
2477.43701,1.7052446604
2476.15137,1.7484031916
2474.86572,1.7744253874
2473.58008,1.7790453434
2472.29443,1.7847137451
2471.00879,1.8005503416
2469.72314,1.8328359127
2468.43750,1.8617868423
2467.15186,1.8468897343
2465.86621,1.7512309551
2464.58057,1.6402171850
2463.29492,1.5661460161
2462.00928,1.5286116600
2460.72363,1.5083458424
2459.43799,1.4923681021
2458.15234,1.4738482237
2456.86670,1.4581952095
2455.58105,1.4531184435
2454.29541,1.4579347372
2453.00977,1.4613543749
2451.72412,1.4553232193
2450.43848,1.4444131851
2449.15283,1.4424126148
2447.86719,1.4577213526
2446.58154,1.4881644249
2445.29590,1.5235232115
2444.01025,1.5545651913
2442.72461,1.5799260139
2441.43896,1.6031042337
2440.15332,1.6281230450
2438.86768,1.6567986012
2437.58203,1.6916564703
2436.29639,1.7552393675
2435.01074,1.8477876186
2433.72510,1.8920938969
2432.43945,1.8293935061
2431.15381,1.7669849396
2429.86816,1.7144436836
2428.58252,1.6858780384
2427.29688,1.6745649576
2426.01123,1.6688860655
2424.72559,1.6605921984
2423.43994,1.6513881683
2422.15430,1.6448029280
2420.86865,1.6432158947
2419.58301,1.6435179710
2418.29736,1.6416875124
2417.01172,1.6374685764
2415.72607,1.6402164698
2414.44043,1.6564729214
2413.15479,1.6940182447
2411.86914,1.7444093227
2410.58350,1.8000314236
2409.29785,1.8033542633
2408.01221,1.7430557013
2406.72656,1.6611213684
2405.44092,1.5918390751
2404.15527,1.5455329418
2402.86963,1.5166044235
2401.58398,1.4981002808
2400.29834,1.4863301516
2399.01270,1.4726589918
2397.72705,1.4538421631
2396.44141,1.4340059757
2395.15576,1.4219095707
2393.87012,1.4206327200
2392.58447,1.4259580374
2391.29883,1.4301187992
2390.01318,1.4316264391
2388.72754,1.4362423420
2387.44189,1.4516150951
2386.15625,1.4799766541
2384.87061,1.5181825161
2383.58496,1.5631450415
2382.29932,1.6147710085
2381.01367,1.6756603718
2379.72803,1.7567111254
2378.44238,1.8529578447
2377.15674,1.9335042238
2375.87109,1.9602770805
2374.58545,1.9205814600
2373.29980,1.8540674448
2372.01416,1.7967048883
2370.72852,1.7559040785
2369.44287,1.7297376394
2368.15723,1.7147175074
2366.87158,1.7035405636
2365.58594,1.6915889978
2364.30029,1.6767007113
2363.01465,1.6536890268
2361.72900,1.6260579824
2360.44336,1.6058162451
2359.15771,1.6085169315
2357.87207,1.6333990097
2356.58643,1.6716532707
2355.30078,1.7111896276
2354.01514,1.7516523600
2352.72949,1.7864133120
2351.44385,1.8132280111
2350.15820,1.8282279968
2348.87256,1.8391535282
2347.58691,1.8195669651
2346.30127,1.7630993128
2345.01563,1.6918054819
2343.72998,1.6331114769
2342.44434,1.5889453888
2341.15869,1.5626256466
2339.87305,1.5497035980
2338.58740,1.5371290445
2337.30176,1.5146054029
2336.01611,1.4851504564
2334.73047,1.4600732327
2333.44482,1.4473389387
2332.15918,1.4472136497
2330.87354,1.4583268166
2329.58789,1.4788069725
2328.30225,1.5043619871
2327.01660,1.5278960466
2325.73096,1.5485275984
2324.44531,1.5741099119
2323.15967,1.6117191315
2321.87402,1.6566541195
2320.58838,1.7012828588
2319.30273,1.7435818911
2318.01709,1.7978079319
2316.73145,1.8374879360
2315.44580,1.8358645439
2314.16016,1.8193337917
2312.87451,1.8169218302
2311.58887,1.8129260540
2310.30322,1.7956317663
2309.01758,1.7653659582
2307.73193,1.7309529781
2306.44629,1.7041869164
2305.16064,1.6836678982
2303.87500,1.6643097401
2302.58936,1.6510229111
2301.30371,1.6478877068
2300.01807,1.6587185860
2298.73242,1.6789145470
2297.44678,1.7020046711
2296.16113,1.7232626677
2294.87549,1.7488827705
2293.58984,1.7893848419
2292.30420,1.8896641731
2291.01855,1.9876712561
2289.73291,1.9797185659
2288.44727,1.8671259880
2287.16162,1.7683858871
2285.87598,1.6852265596
2284.59033,1.6157968044
2283.30469,1.5569860935
2282.01904,1.5067425966
2280.73340,1.4626724720
2279.44775,1.4251807928
2278.16211,1.3921777010
2276.87646,1.3619337082
2275.59082,1.3349808455
2274.30518,1.3134349585
2273.01953,1.2943880558
2271.73389,1.2723973989
2270.44824,1.2456265688
2269.16260,1.2178461552
2267.87695,1.1908081770
2266.59131,1.1616274118
2265.30566,1.1282795668
2264.02002,1.0934185982
2262.73438,1.0611670017
2261.44873,1.0323531628
2260.16309,1.0049139261
2258.87744,0.9765197039
2257.59180,0.9467127323
2256.30615,0.9162854552
2255.02051,0.8860965967
2253.73486,0.8567475080
2252.44922,0.8284227848
2251.16357,0.8003593087
2249.87793,0.7712498307
2248.59229,0.7409415841
2247.30664,0.7108965516
2246.02100,0.6827476621
2244.73535,0.6568183899
2243.44971,0.6322830319
2242.16406,0.6080285311
2240.87842,0.5833284259
2239.59277,0.5581774116
2238.30713,0.5333294272
2237.02148,0.5095229745
2235.73584,0.4866859913
2234.45020,0.4641791284
2233.16455,0.4418088794
2231.87891,0.4200996757
2230.59326,0.3995355964
2229.30762,0.3801139295
2228.02197,0.3616846800
2226.73633,0.3442641497
2225.45068,0.3277613223
2224.16504,0.3118438721
2222.87939,0.2962933779
2221.59375,0.2812166214
2220.30811,0.2667202353
2219.02246,0.2526814044
2217.73682,0.2389833331
2216.45117,0.2257379442
2215.16553,0.2131239772
2213.87988,0.2011697143
2212.59424,0.1897847503
2211.30859,0.1788680553
2210.02295,0.1683310717
2208.73730,0.1581335515
2207.45166,0.1483240128
2206.16602,0.1389647722
2204.88037,0.1300171465
2203.59473,0.1213604137
2202.30908,0.1129160970
2201.02344,0.1046868637
2199.73779,0.0966956913
2198.45215,0.0889674202
2197.16650,0.0815640837
2195.88086,0.0745505616
2194.59521,0.0678932965
2193.30957,0.0614334345
2192.02393,0.0550041832
2190.73828,0.0485700965
2189.45264,0.0422478318
2188.16699,0.0362189151
2186.88135,0.0306213740
2185.59570,0.0254529417
2184.31006,0.0205565691
2183.02441,0.0157403592
2181.73877,0.0109456489
2180.45313,0.0062652444
2179.16748,0.0018006021
2177.88184,-0.0024423464
2176.59619,-0.0065055653
2175.31055,-0.0104123047
2174.02490,-0.0141812023
2172.73926,-0.0178487115
2171.45361,-0.0214307681
2170.16797,-0.0248911753
2168.88232,-0.0281786956
2167.59668,-0.0312811285
2166.31104,-0.0342297107
2165.02539,-0.0370723233
2163.73975,-0.0398452543
2162.45410,-0.0425510742
2161.16846,-0.0451610126
2159.88281,-0.0476549342
2158.59717,-0.0500472933
2157.31152,-0.0523544960
2156.02588,-0.0545531325
2154.74023,-0.0566044673
2153.45459,-0.0585126951
2152.16895,-0.0603239685
2150.88330,-0.0620669425
2149.59766,-0.0637265220
2148.31201,-0.0652786717
2147.02637,-0.0667267963
2145.74072,-0.0680901706
2144.45508,-0.0693766847
2143.16943,-0.0705852732
2141.88379,-0.0717312470
2140.59814,-0.0728433132
2139.31250,-0.0739255399
2138.02686,-0.0749442726
2136.74121,-0.0758778006
2135.45557,-0.0767654330
2134.16992,-0.0776739493
2132.88428,-0.0786159784
2131.59863,-0.0795302391
2130.31299,-0.0803478807
2129.02734,-0.0810538679
2127.74170,-0.0816798210
2126.45605,-0.0822615251
2125.17041,-0.0828154162
2123.88477,-0.0833394229
2122.59912,-0.0838271007
2121.31348,-0.0842784643
2120.02783,-0.0846979246
2118.74219,-0.0850832239
2117.45654,-0.0854271501
2116.17090,-0.0857327282
2114.88525,-0.0860133842
2113.59961,-0.0862722769
2112.31396,-0.0864980742
2111.02832,-0.0866871849
2109.74268,-0.0868596584
2108.45703,-0.0870455727
2107.17139,-0.0872591957
2105.88574,-0.0874854401
2104.60010,-0.0876872838
2103.31445,-0.0878325850
2102.02881,-0.0879300982
2100.74316,-0.0880346969
2099.45752,-0.0882035866
2098.17188,-0.0884462371
2096.88623,-0.0887190104
2095.60059,-0.0889618471
2094.31494,-0.0891302004
2093.02930,-0.0892135501
2091.74365,-0.0892413035
2090.45801,-0.0892705992
2089.17236,-0.0893530846
2087.88672,-0.0895040110
2086.60107,-0.0896982700
2085.31543,-0.0898886994
2084.02979,-0.0900383592
2082.74414,-0.0901453495
2081.45850,-0.0902351066
2080.17285,-0.0903266594
2078.88721,-0.0904154629
2077.60156,-0.0904942080
2076.31592,-0.0905695558
2075.03027,-0.0906506702
2073.74463,-0.0907375962
2072.45898,-0.0908301324
2071.17334,-0.0909290314
2069.88770,-0.0910229087
2068.60205,-0.0910917595
2067.31641,-0.0911281928
2066.03076,-0.0911407098
2064.74512,-0.0911396071
2063.45947,-0.0911370218
2062.17383,-0.0911542624
2060.88818,-0.0912015215
2059.60254,-0.0912497267
2058.31689,-0.0912466720
2057.03125,-0.0911718085
2055.74561,-0.0910574719
2054.45996,-0.0909504518
2053.17432,-0.0908632800
2051.88867,-0.0907780901
2050.60303,-0.0906876847
2049.31738,-0.0906104967
2048.03174,-0.0905593410
2046.74609,-0.0905159712
2045.46045,-0.0904568359
2044.17480,-0.0903922096
2042.88916,-0.0903579444
2041.60352,-0.0903662741
2040.31787,-0.0903826728
2039.03223,-0.0903553441
2037.74658,-0.0902566835
2036.46094,-0.0900976360
2035.17529,-0.0899103358
2033.88965,-0.0897240043
2032.60400,-0.0895529762
2031.31836,-0.0894000232
2030.03271,-0.0892639682
2028.74707,-0.0891376585
2027.46143,-0.0890048668
2026.17578,-0.0888482332
2024.89014,-0.0886625797
2023.60449,-0.0884507671
2022.31885,-0.0882068351
2021.03320,-0.0879164040
2019.74756,-0.0875834897
2018.46191,-0.0872539803
2017.17627,-0.0869912058
2015.89063,-0.0868215561
2014.60498,-0.0867077559
2013.31934,-0.0865853727
2012.03369,-0.0864183158
2010.74805,-0.0862171501
2009.46240,-0.0860118568
2008.17676,-0.0858180150
2006.89111,-0.0856266916
2005.60547,-0.0854214951
2004.31982,-0.0852056071
2003.03418,-0.0850063637
2001.74854,-0.0848466903
2000.46289,-0.0847212672
1999.17725,-0.0846085846
1997.89160,-0.0844929293
1996.60596,-0.0843608379
1995.32031,-0.0841962472
1994.03467,-0.0840063393
1992.74902,-0.0838383213
1991.46338,-0.0837411210
1990.17773,-0.0837142766
1988.89209,-0.0837203786
1987.60645,-0.0837327987
1986.32080,-0.0837481245
1985.03516,-0.0837636665
1983.74951,-0.0837731436
1982.46387,-0.0837785602
1981.17822,-0.0837849751
1979.89258,-0.0837835148
1978.60693,-0.0837569237
1977.32129,-0.0837002248
1976.03564,-0.0836291686
1974.75000,-0.0835679695
1973.46436,-0.0835279897
1972.17871,-0.0834913477
1970.89307,-0.0834179074
1969.60742,-0.0832806155
1968.32178,-0.0830991492
1967.03613,-0.0829295516
1965.75049,-0.0828161463
1964.46484,-0.0827541128
1963.17920,-0.0827019364
1961.89355,-0.0826269165
1960.60791,-0.0825251192
1959.32227,-0.0824005976
1958.03662,-0.0822425932
1956.75098,-0.0820438564
1955.46533,-0.0818316117
1954.17969,-0.0816554874
1952.89404,-0.0815360472
1951.60840,-0.0814383402
1950.32275,-0.0813055709
1949.03711,-0.0811111629
1947.75146,-0.0808669999
1946.46582,-0.0805889890
1945.18018,-0.0802844986
1943.89453,-0.0799866840
1942.60889,-0.0797726512
1941.32324,-0.0797017366
1940.03760,-0.0797405541
1938.75195,-0.0797834322
1937.46631,-0.0797475874
1936.18066,-0.0796204060
1934.89502,-0.0794339702
1933.60938,-0.0792312622
1932.32373,-0.0790538862
1931.03809,-0.0789258629
1929.75244,-0.0788391232
1928.46680,-0.0787598938
1927.18115,-0.0786417648
1925.89551,-0.0784491450
1924.60986,-0.0782035291
1923.32422,-0.0779920667
1922.03857,-0.0778775513
1920.75293,-0.0778128058
1919.46729,-0.0777079612
1918.18164,-0.0775684193
1916.89600,-0.0774864405
1915.61035,-0.0774975270
1914.32471,-0.0775220022
1913.03906,-0.0774673373
1911.75342,-0.0773261487
1910.46777,-0.0771618187
1909.18213,-0.0770374164
1907.89648,-0.0769772306
1906.61084,-0.0769670382
1905.32520,-0.0769762322
1904.03955,-0.0769811794
1902.75391,-0.0769714564
1901.46826,-0.0769421905
1900.18262,-0.0768898427
1898.89697,-0.0768144056
1897.61133,-0.0767219141
1896.32568,-0.0766318291
1895.04004,-0.0765707195
1893.75439,-0.0765393898
1892.46875,-0.0765014067
1891.18311,-0.0764365941
1889.89746,-0.0763917938
1888.61182,-0.0764296874
1887.32617,-0.0765420422
1886.04053,-0.0766593590
1884.75488,-0.0767403170
1883.46924,-0.0768049136
1882.18359,-0.0768819973
1880.89795,-0.0769675523
1879.61230,-0.0770434812
1878.32666,-0.0771075115
1877.04102,-0.0771750435
1875.75537,-0.0772583857
1874.46973,-0.0773394555
1873.18408,-0.0773596466
1871.89844,-0.0772590339
1870.61279,-0.0770522878
1869.32715,-0.0768601373
1868.04150,-0.0768359751
1866.75586,-0.0770361051
1865.47021,-0.0773662329
1864.18457,-0.0776652843
1862.89893,-0.0778306350
1861.61328,-0.0778671652
1860.32764,-0.0778435767
1859.04199,-0.0778233260
1857.75635,-0.0778260008
1856.47070,-0.0778324530
1855.18506,-0.0778164789
1853.89941,-0.0777707398
1852.61377,-0.0777029395
1851.32813,-0.0776175261
1850.04248,-0.0775052831
1848.75684,-0.0773377642
1847.47119,-0.0770786405
1846.18555,-0.0767437071
1844.89990,-0.0764572099
1843.61426,-0.0763795376
1842.32861,-0.0765355751
1841.04297,-0.0767691210
1839.75732,-0.0769023374
1838.47168,-0.0769004673
1837.18604,-0.0768546164
1835.90039,-0.0768466070
1834.61475,-0.0768574029
1833.32910,-0.0768005699
1832.04346,-0.0766387731
1830.75781,-0.0764574781
1829.47217,-0.0763938203
1828.18652,-0.0764874294
1826.90088,-0.0766569600
1825.61523,-0.0768325552
1824.32959,-0.0770382360
1823.04395,-0.0773187503
1821.75830,-0.0776457116
1820.47266,-0.0779419318
1819.18701,-0.0781654790
1817.90137,-0.0783371180
1816.61572,-0.0784948692
1815.33008,-0.0786434487
1814.04443,-0.0787580386
1812.75879,-0.0788410231
1811.47314,-0.0789512992
1810.18750,-0.0791553706
1808.90186,-0.0794593617
1807.61621,-0.0798057392
1806.33057,-0.0801176727
1805.04492,-0.0803310573
1803.75928,-0.0804230869
1802.47363,-0.0804487243
1801.18799,-0.0805199593
1799.90234,-0.0807098970
1798.61670,-0.0809818581
1797.33105,-0.0812293142
1796.04541,-0.0813689381
1794.75977,-0.0813982487
1793.47412,-0.0814047232
1792.18848,-0.0815266073
1790.90283,-0.0818511173
1789.61719,-0.0823155046
1788.33154,-0.0827460214
1787.04590,-0.0830175206
1785.76025,-0.0831437036
1784.47461,-0.0832050070
1783.18896,-0.0832487717
1781.90332,-0.0833000094
1780.61768,-0.0834136009
1779.33203,-0.0836290866
1778.04639,-0.0838789493
1776.76074,-0.0840093195
1775.47510,-0.0839206129
1774.18945,-0.0836793408
1772.90381,-0.0834795982
1771.61816,-0.0834825039
1770.33252,-0.0836937800
1769.04688,-0.0840153843
1767.76123,-0.0843731165
1766.47559,-0.0847274438
1765.18994,-0.0849995017
1763.90430,-0.0851147622
1762.61865,-0.0851299614
1761.33301,-0.0851984620
1760.04736,-0.0853817761
1758.76172,-0.0856036916
1757.47607,-0.0858054087
1756.19043,-0.0860130042
1754.90479,-0.0862147659
1753.61914,-0.0863035172
1752.33350,-0.0862173587
1751.04785,-0.0860590339
1749.76221,-0.0860051885
1748.47656,-0.0861248821
1747.19092,-0.0863370076
1745.90527,-0.0865268037
1744.61963,-0.0866444111
1743.33398,-0.0866902098
1742.04834,-0.0866730809
1740.76270,-0.0866252035
1739.47705,-0.0865904614
1738.19141,-0.0865257308
1736.90576,-0.0862899423
1735.62012,-0.0858483016
1734.33447,-0.0854285657
1733.04883,-0.0853243917
1731.76318,-0.0855643749
1730.47754,-0.0859282240
1729.19189,-0.0862366259
1727.90625,-0.0864581093
1726.62061,-0.0865943655
1725.33496,-0.0866354555
1724.04932,-0.0866072178
1722.76367,-0.0865206420
1721.47803,-0.0862895548
1720.19238,-0.0858248547
1718.90674,-0.0852218717
1717.62109,-0.0847517997
1716.33545,-0.0846274644
1715.04980,-0.0848257914
1713.76416,-0.0851572007
1712.47852,-0.0854458660
1711.19287,-0.0856020376
1709.90723,-0.0855736434
1708.62158,-0.0853330344
1707.33594,-0.0849500746
1706.05029,-0.0845698118
1704.76465,-0.0842153057
1703.47900,-0.0837000981
1702.19336,-0.0828996450
1700.90771,-0.0820348933
1699.62207,-0.0814766213
1698.33643,-0.0812949613
1697.05078,-0.0812567994
1695.76514,-0.0812301338
1694.47949,-0.0812713951
1693.19385,-0.0813200697
1691.90820,-0.0811345726
1690.62256,-0.0805882141
1689.33691,-0.0797633454
1688.05127,-0.0786936432
1686.76563,-0.0772735029
1685.47998,-0.0755421966
1684.19434,-0.0738403350
1682.90869,-0.0725099966
1681.62305,-0.0715414733
1680.33740,-0.0706221983
1679.05176,-0.0694153458
1677.76611,-0.0677406341
1676.48047,-0.0656305850
1675.19482,-0.0632800907
1673.90918,-0.0608501919
1672.62354,-0.0583148301
1671.33789,-0.0555889420
1670.05225,-0.0527787507
1668.76660,-0.0501444452
1667.48096,-0.0477669612
1666.19531,-0.0453942418
1664.90967,-0.0427078269
1663.62402,-0.0396478251
1662.33838,-0.0364003591
1661.05273,-0.0331229605
1659.76709,-0.0297558662
1658.48145,-0.0260594450
1657.19580,-0.0217356496
1655.91016,-0.0166009106
1654.62451,-0.0108505646
1653.33887,-0.0051395684
1652.05322,-0.0000876928
1650.76758,0.0043910798
1649.48193,0.0089404890
1648.19629,0.0139098559
1646.91064,0.0189254135
1645.62500,0.0233482048
1644.33936,0.0269500315
1643.05371,0.0299645811
1641.76807,0.0326573066
1640.48242,0.0350917056
1639.19678,0.0372044779
1637.91113,0.0388648659
1636.62549,0.0398264080
1635.33984,0.0397996269
1634.05420,0.0387192704
1632.76855,0.0368820019
1631.48291,0.0347166173
1630.19727,0.0324458145
1628.91162,0.0300056860
1627.62598,0.0272419769
1626.34033,0.0240942072
1625.05469,0.0205447897
1623.76904,0.0164784808
1622.48340,0.0117490301
1621.19775,0.0064192987
1619.91211,0.0007901109
1618.62646,-0.0048871092
1617.34082,-0.0105989780
1616.05518,-0.0163707342
1614.76953,-0.0219902173
1613.48389,-0.0270911343
1612.19824,-0.0314810090
1610.91260,-0.0352831930
1609.62695,-0.0387749039
1608.34131,-0.0421371460
1607.05566,-0.0453343168
1605.77002,-0.0481814891
1604.48438,-0.0505116396
1603.19873,-0.0523005202
1601.91309,-0.0536552481
1600.62744,-0.0546941906
1599.34180,-0.0554583669
1598.05615,-0.0559437796
1596.77051,-0.0561864339
1595.48486,-0.0562826842
1594.19922,-0.0563226976
1592.91357,-0.0563296601
1591.62793,-0.0562795922
1590.34229,-0.0561589636
1589.05664,-0.0559820049
1587.77100,-0.0557525344
1586.48535,-0.0554353073
1585.19971,-0.0549798422
1583.91406,-0.0543687157
1582.62842,-0.0536264144
1581.34277,-0.0527575649
1580.05713,-0.0516853780
1578.77148,-0.0503122620
1577.48584,-0.0486965701
1576.20020,-0.0471022017
1574.91455,-0.0457451604
1573.62891,-0.0445133746
1572.34326,-0.0431006327
1571.05762,-0.0414157100
1569.77197,-0.0396931395
1568.48633,-0.0381640866
1567.20068,-0.0367826372
1565.91504,-0.0353598930
1564.62939,-0.0337724239
1563.34375,-0.0319057852
1562.05811,-0.0296014268
1560.77246,-0.0268985219
1559.48682,-0.0242563412
1558.20117,-0.0222601797
1556.91553,-0.0210390147
1555.62988,-0.0201759320
1554.34424,-0.0191874597
1553.05859,-0.0178791191
1551.77295,-0.0162985884
1550.48730,-0.0145591591
1549.20166,-0.0127316462
1547.91602,-0.0107822400
1546.63037,-0.0085939718
1545.34473,-0.0060974578
1544.05908,-0.0033524623
1542.77344,-0.0004841601
1541.48779,0.0023637526
1540.20215,0.0049887090
1538.91650,0.0072285556
1537.63086,0.0092066117
1536.34521,0.0113064079
1535.05957,0.0137963006
1533.77393,0.0165864993
1532.48828,0.0194218326
1531.20264,0.0222184192
1529.91699,0.0251086839
1528.63135,0.0282100886
1527.34570,0.0314828381
1526.06006,0.0348489620
1524.77441,0.0383602083
1523.48877,0.0421278812
1522.20313,0.0460957624
1520.91748,0.0500418693
1519.63184,0.0538788140
1518.34619,0.0578078777
1517.06055,0.0620882846
1515.77490,0.0668056831
1514.48926,0.0719536617
1513.20361,0.0775913745
1511.91797,0.0838204771
1510.63232,0.0906902850
1509.34668,0.0981596336
1508.06104,0.1060397625
1506.77539,0.1139924079
1505.48975,0.1217931509
1504.20410,0.1296523511
1502.91846,0.1381076723
1501.63281,0.1475699097
1500.34717,0.1580543220
1499.06152,0.1692981422
1497.77588,0.1810095012
1496.49023,0.1929899752
1495.20459,0.2051745206
1493.91895,0.2176774144
1492.63330,0.2307346165
1491.34766,0.2444657385
1490.06201,0.2586818635
1488.77637,0.2729930282
1487.49072,0.2871041894
1486.20508,0.3009666800
1484.91943,0.3147139251
1483.63379,0.3285272419
1482.34814,0.3424820304
1481.06250,0.3564368486
1479.77686,0.3701046705
1478.49121,0.3832297325
1477.20557,0.3956233263
1475.91992,0.4071471393
1474.63428,0.4178511202
1473.34863,0.4280222058
1472.06299,0.4378349185
1470.77734,0.4470217526
1469.49170,0.4551183581
1468.20605,0.4619225860
1466.92041,0.4674958885
1465.63477,0.4719080329
1464.34912,0.4752703309
1463.06348,0.4779340029
1461.77783,0.4803498685
1460.49219,0.4826348722
1459.20654,0.4843463600
1457.92090,0.4847263098
1456.63525,0.4832792878
1455.34961,0.4802165627
1454.06396,0.4762680233
1452.77832,0.4720722139
1451.49268,0.4678342640
1450.20703,0.4634535909
1448.92139,0.4587755203
1447.63574,0.4537170529
1446.35010,0.4482908249
1445.06445,0.4425659478
1443.77881,0.4365649521
1442.49316,0.4302357137
1441.20752,0.4235562682
1439.92188,0.4165464640
1438.63623,0.4090667665
1437.35059,0.4007313550
1436.06494,0.3912280500
1434.77930,0.3806941211
1433.49365,0.3695990741
1432.20801,0.3582801223
1430.92236,0.3467373550
1429.63672,0.3348594606
1428.35107,0.3227081597
1427.06543,0.3104919195
1425.77979,0.2983414233
1424.49414,0.2862626910
1423.20850,0.2742976844
1421.92285,0.2625641227
1420.63721,0.2510635853
1419.35156,0.2396094650
1418.06592,0.2280582637
1416.78027,0.2165313363
1415.49463,0.2053110749
1414.20898,0.1945947111
1412.92334,0.1844075024
1411.63770,0.1746812910
1410.35205,0.1653680056
1409.06641,0.1564946026
1407.78076,0.1481094807
1406.49512,0.1401768774
1405.20947,0.1325791478
1403.92383,0.1252558976
1402.63818,0.1182790995
1401.35254,0.1117452011
1400.06689,0.1056493074
1398.78125,0.0999117717
1397.49561,0.0944669768
1396.20996,0.0892628953
1394.92432,0.0842240751
1393.63867,0.0793108046
1392.35303,0.0746112987
1391.06738,0.0702814087
1389.78174,0.0663568899
1388.49609,0.0626713634
1387.21045,0.0589957684
1385.92480,0.0552392937
1384.63916,0.0514767356
1383.35352,0.0478004739
1382.06787,0.0442070588
1380.78223,0.0406454578
1379.49658,0.0371425264
1378.21094,0.0338415019
1376.92529,0.0308954511
1375.63965,0.0283202082
1374.35400,0.0259705745
1373.06836,0.0236735437
1371.78271,0.0213621985
1370.49707,0.0190616809
1369.21143,0.0167938974
1367.92578,0.0145723447
1366.64014,0.0124693634
1365.35449,0.0105876019
1364.06885,0.0089220721
1362.78320,0.0073143160
1361.49756,0.0055962596
1360.21191,0.0037448434
1358.92627,0.0018598193
1357.64063,0.0000364231
1356.35498,-0.0016958914
1355.06934,-0.0033437281
1353.78369,-0.0049067666
1352.49805,-0.0063638068
1351.21240,-0.0076843584
1349.92676,-0.0088532139
1348.64111,-0.0098890960
1347.35547,-0.0108363749
1346.06982,-0.0117346803
1344.78418,-0.0125939166
1343.49854,-0.0133987013
1342.21289,-0.0141544929
1340.92725,-0.0149411876
1339.64160,-0.0158930942
1338.35596,-0.0170889273
1337.07031,-0.0184702035
1335.78467,-0.0198879577
1334.49902,-0.0212119129
1333.21338,-0.0223821923
1331.92773,-0.0233935490
1330.64209,-0.0242735259
1329.35645,-0.0250662081
1328.07080,-0.0258083250
1326.78516,-0.0265069492
1325.49951,-0.0271423962
1324.21387,-0.0276888106
1322.92822,-0.0281333309
1321.64258,-0.0284921192
1320.35693,-0.0288130157
1319.07129,-0.0291489698
1317.78564,-0.0295105968
1316.50000,-0.0298562124
1315.21436,-0.0301374197
1313.92871,-0.0303497482
1312.64307,-0.0305177234
1311.35742,-0.0306444764
1310.07178,-0.0307074804
1308.78613,-0.0307038594
1307.50049,-0.0306617003
1306.21484,-0.0305956528
1304.92920,-0.0304775182
1303.64355,-0.0302698873
1302.35791,-0.0299649015
1301.07227,-0.0295718759
1299.78662,-0.0290840957
1298.50098,-0.0284758732
1297.21533,-0.0277303383
1295.92969,-0.0268547703
1294.64404,-0.0258717407
1293.35840,-0.0248026792
1292.07275,-0.0236524437
1290.78711,-0.0223996472
1289.50146,-0.0210099164
1288.21582,-0.0194717925
1286.93018,-0.0178223792
1285.64453,-0.0161137972
1284.35889,-0.0143477302
1283.07324,-0.0124593638
1281.78760,-0.0103603909
1280.50195,-0.0079785576
1279.21631,-0.0052478160
1277.93066,-0.0020911514
1276.64502,0.0015649048
1275.35938,0.0057671806
1274.07373,0.0105462791
1272.78809,0.0159494504
1271.50244,0.0220577866
1270.21680,0.0289845038
1268.93115,0.0368790999
1267.64551,0.0459217653
1266.35986,0.0562817864
1265.07422,0.0680947080
1263.78857,0.0815659240
1262.50293,0.0971111953
1261.21729,0.1153050885
1259.93164,0.1366018951
1258.64600,0.1612024307
1257.36035,0.1892806441
1256.07471,0.2213101238
1254.78906,0.2580732107
1253.50342,0.3004179895
1252.21777,0.3490526974
1250.93213,0.4044987261
1249.64648,0.4671532214
1248.36084,0.5373868942
1247.07520,0.6156017184
1245.78955,0.7019693851
1244.50391,0.7962628603
1243.21826,0.8977264166
1241.93262,1.0051368475
1240.64697,1.1164174080
1239.36133,1.2293629646
1238.07568,1.3419231176
1236.79004,1.4508119822
1235.50439,1.5472956896
1234.21875,1.6191588640
1232.93311,1.6598684788
1231.64746,1.6803545952
1230.36182,1.6913877726
1229.07617,1.6923234463
1227.79053,1.6772031784
1226.50488,1.6490298510
1225.21924,1.6183989048
1223.93359,1.5930956602
1222.64795,1.5759270191
1221.36230,1.5666673183
1220.07666,1.5671533346
1218.79102,1.5785139799
1217.50537,1.6014835835
1216.21973,1.6322256327
1214.93408,1.6648960114
1213.64844,1.6932098866
1212.36279,1.7197995186
1211.07715,1.7395998240
1209.79150,1.7565611601
1208.50586,1.7753063440
1207.22021,1.8004258871
1205.93457,1.8347693682
1204.64893,1.8784886599
1203.36328,1.9209091663
1202.07764,1.9504833221
1200.79199,1.9537094831
1199.50635,1.9322445393
1198.22070,1.8999885321
1196.93506,1.9341675043
1195.64941,1.9874851704
1194.36377,2.0555636883
1193.07813,2.1320247650
1191.79248,2.2785823345
1190.50684,2.4668898582
1189.22119,2.5975837708
1187.93555,2.4535706043
1186.64990,2.1064751148
1185.36426,1.8463222980
1184.07861,1.6416982412
1182.79297,1.4732251167
1181.50732,1.3254027367
1180.22168,1.1973050833
1178.93604,1.0849262476
1177.65039,0.9864543080
1176.36475,0.9000519514
1175.07910,0.8235978484
1173.79346,0.7544338107
1172.50781,0.6911448836
1171.22217,0.6335874796
1169.93652,0.5818471313
1168.65088,0.5354222655
1167.36523,0.4934441447
1166.07959,0.4552723765
1164.79395,0.4207162559
1163.50830,0.3897162080
1162.22266,0.3619434834
1160.93701,0.3367627859
1159.65137,0.3135641217
1158.36572,0.2920412421
1157.08008,0.2721349299
1155.79443,0.2538396120
1154.50879,0.2371529788
1153.22314,0.2220803797
1151.93750,0.2085407376
1150.65186,0.1962814927
1149.36621,0.1849806309
1148.08057,0.1744318306
1146.79492,0.1646010131
1145.50928,0.1555254757
1144.22363,0.1472086161
1142.93799,0.1395895779
1141.65234,0.1325627118
1140.36670,0.1260230243
1139.08105,0.1199326292
1137.79541,0.1143353581
1136.50977,0.1092644930
1135.22412,0.1046303436
1133.93848,0.1002497748
1132.65283,0.0960070416
1131.36719,0.0919363201
1130.08154,0.0881209522
1128.79590,0.0845680758
1127.51025,0.0812335312
1126.22461,0.0781251565
1124.93896,0.0752915442
1123.65332,0.0727286264
1122.36768,0.0703648925
1121.08203,0.0681526288
1119.79639,0.0660997033
1118.51074,0.0641865656
1117.22510,0.0623155273
1115.93945,0.0604001507
1114.65381,0.0584759116
1113.36816,0.0566698983
1112.08252,0.0550625622
1110.79688,0.0536165833
1109.51123,0.0522415228
1108.22559,0.0508874469
1106.93994,0.0495568179
1105.65430,0.0482496582
1104.36865,0.0469490550
1103.08301,0.0456654169
1101.79736,0.0444469750
1100.51172,0.0433174297
1099.22607,0.0422328599
1097.94043,0.0411382131
1096.65479,0.0400356203
1095.36914,0.0389526933
1094.08350,0.0378727131
1092.79785,0.0367577709
1091.51221,0.0356312171
1090.22656,0.0345823877
1088.94092,0.0336666629
1087.65527,0.0328355283
1086.36963,0.0319747217
1085.08398,0.0309912972
1083.79834,0.0298580341
1082.51270,0.0286070760
1081.22705,0.0273154657
1079.94141,0.0260854308
1078.65576,0.0249832533
1077.37012,0.0239770804
1076.08447,0.0229613110
1074.79883,0.0218720865
1073.51318,0.0207626689
1072.22754,0.0197485015
1070.94189,0.0188850444
1069.65625,0.0181111675
1068.37061,0.0173066631
1067.08496,0.0164032821
1065.79932,0.0154438373
1064.51367,0.0145420171
1063.22803,0.0137876179
1061.94238,0.0131901465
1060.65674,0.0126914913
1059.37109,0.0122306282
1058.08545,0.0117990337
1056.79980,0.0114356587
1055.51416,0.0111534530
1054.22852,0.0108991154
1052.94287,0.0106175244
1051.65723,0.0103250602
1050.37158,0.0100765582
1049.08594,0.0098974984
1047.80029,0.0098105110
1046.51465,0.0098732412
1045.22900,0.0101020467
1043.94336,0.0103953946
1042.65771,0.0106246332
1041.37207,0.0107901935
1040.08643,0.0110012144
1038.80078,0.0113058770
1037.51514,0.0116311992
1036.22949,0.0118960235
1034.94385,0.0121072643
1033.65820,0.0123166898
1032.37256,0.0125460662
1031.08691,0.0128035843
1029.80127,0.0131284837
1028.51563,0.0135607887
1027.22998,0.0140762720
1025.94434,0.0145982839
1024.65869,0.0150720663
1023.37305,0.0154956076
1022.08740,0.0158883054
1020.80176,0.0162621737
1019.51611,0.0166109707
1018.23047,0.0169062726
1016.94482,0.0171192661
1015.65918,0.0172602516
1014.37354,0.0173704587
1013.08789,0.0174667872
1011.80225,0.0175327621
1010.51660,0.0175661314
1009.23096,0.0175847840
1007.94531,0.0175768863
1006.65967,0.0174971055
1005.37402,0.0173323900
1004.08838,0.0171298217
1002.80273,0.0169484764
1001.51709,0.0168043654
1000.23145,0.0166685320
998.94580,0.0164934024
997.66016,0.0162417237
996.37451,0.0159041751
995.08887,0.0154971648
993.80322,0.0150369331
992.51758,0.0145260356
991.23193,0.0139682610
989.94629,0.0133920331
988.66064,0.0128479227
987.37500,0.0123826861
986.08936,0.0120181041
984.80371,0.0117436582
983.51807,0.0115193296
982.23242,0.0112967109
980.94678,0.0110555394
979.66113,0.0108256219
978.37549,0.0106569966
977.08984,0.0105679221
975.80420,0.0105324090
974.51855,0.0105180601
973.23291,0.0105183255
971.94727,0.0105429115
970.66162,0.0105948430
969.37598,0.0106731793
968.09033,0.0107910158
966.80469,0.0109833740
965.51904,0.0112886094
964.23340,0.0117132347
962.94775,0.0122161722
961.66211,0.0127430959
960.37646,0.0132805621
959.09082,0.0138553325
957.80518,0.0144750765
956.51953,0.0151016815
955.23389,0.0157107823
953.94824,0.0163524505
952.66260,0.0171059109
951.37695,0.0179861225
950.09131,0.0189385004
948.80566,0.0199222378
947.52002,0.0209432505
946.23438,0.0219998620
944.94873,0.0230484903
943.66309,0.0240377616
942.37744,0.0249436907
941.09180,0.0257708598
939.80615,0.0265650954
938.52051,0.0274238959
937.23486,0.0284368787
935.94922,0.0295957774
934.66357,0.0307913981
933.37793,0.0319050103
932.09229,0.0328931026
930.80664,0.0338040031
929.52100,0.0347373150
928.23535,0.0357585251
926.94971,0.0368313380
925.66406,0.0378515832
924.37842,0.0387561172
923.09277,0.0395686664
921.80713,0.0403353907
920.52148,0.0410616100
919.23584,0.0417326204
917.95020,0.0423629433
916.66455,0.0429993011
915.37891,0.0436937474
914.09326,0.0444793515
912.80762,0.0453532673
911.52197,0.0462667458
910.23633,0.0471408926
908.95068,0.0479059070
907.66504,0.0485424548
906.37939,0.0490953177
905.09375,0.0496556573
903.80811,0.0503069200
902.52246,0.0510643758
901.23682,0.0518604927
899.95117,0.0526148491
