3999.64014,-0.1427494437
3998.35449,-0.1428449452
3997.06885,-0.1429422498
3995.78320,-0.1430754662
3994.49756,-0.1432875097
3993.21191,-0.1435524523
3991.92627,-0.1437869966
3990.64063,-0.1439440697
3989.35498,-0.1440520138
3988.06934,-0.1441668570
3986.78369,-0.1443222165
3985.49805,-0.1445313692
3984.21240,-0.1447955668
3982.92676,-0.1450908631
3981.64111,-0.1453644633
3980.35547,-0.1455642879
3979.06982,-0.1456790864
3977.78418,-0.1457503587
3976.49854,-0.1458327621
3975.21289,-0.1459362507
3973.92725,-0.1460102946
3972.64160,-0.1459964961
3971.35596,-0.1458951086
3970.07031,-0.1457685828
3968.78467,-0.1456855983
3967.49902,-0.1456709057
3966.21338,-0.1456960142
3964.92773,-0.1457021981
3963.64209,-0.1456376612
3962.35645,-0.1454954445
3961.07080,-0.1453128159
3959.78516,-0.1451258212
3958.49951,-0.1449315995
3957.21387,-0.1447140276
3955.92822,-0.1444857866
3954.64258,-0.1442786902
3953.35693,-0.1440948099
3952.07129,-0.1438941061
3950.78564,-0.1436354369
3949.50000,-0.1433247179
3948.21436,-0.1430304796
3946.92871,-0.1428428739
3945.64307,-0.1427853703
3944.35742,-0.1427610219
3943.07178,-0.1426321566
3941.78613,-0.1423776895
3940.50049,-0.1421267241
3939.21484,-0.1420048177
3937.92920,-0.1420025080
3936.64355,-0.1420415938
3935.35791,-0.1421050727
3934.07227,-0.1422231942
3932.78662,-0.1423571259
3931.50098,-0.1423984319
3930.21533,-0.1423028558
3928.92969,-0.1421609372
3927.64404,-0.1420974880
3926.35840,-0.1421495378
3925.07275,-0.1422623694
3923.78711,-0.1423622221
3922.50146,-0.1424004138
3921.21582,-0.1423571259
3919.93018,-0.1422471106
3918.64453,-0.1421149522
3917.35889,-0.1419923604
3916.07324,-0.1418609023
3914.78760,-0.1416734308
3913.50195,-0.1414082050
3912.21631,-0.1410928369
3910.93066,-0.1407868117
3909.64502,-0.1405531764
3908.35938,-0.1404155046
3907.07373,-0.1403176934
3905.78809,-0.1401443183
3904.50244,-0.1398229897
3903.21680,-0.1393992603
3901.93115,-0.1389772743
3900.64551,-0.1385950446
3899.35986,-0.1381945014
3898.07422,-0.1377168894
3896.78857,-0.1371822357
3895.50293,-0.1366570592
3894.21729,-0.1361616403
3892.93164,-0.1356459707
3891.64600,-0.1350780129
3890.36035,-0.1345276684
3889.07471,-0.1341020614
3887.78906,-0.1337889582
3886.50342,-0.1334484667
3885.21777,-0.1330136806
3883.93213,-0.1326112598
3882.64648,-0.1323917210
3881.36084,-0.1322984099
3880.07520,-0.1321280748
3878.78955,-0.1317976564
3877.50391,-0.1314265132
3876.21826,-0.1311456412
3874.93262,-0.1309610456
3873.64697,-0.1308295578
3872.36133,-0.1307421625
3871.07568,-0.1306663752
3869.79004,-0.1305073947
3868.50439,-0.1302246600
3867.21875,-0.1299264282
3865.93311,-0.1297548413
3864.64746,-0.1297225207
3863.36182,-0.1297438294
3862.07617,-0.1297720820
3860.79053,-0.1298213899
3859.50488,-0.1298938841
3858.21924,-0.1299730539
3856.93359,-0.1300507039
3855.64795,-0.1300808191
3854.36230,-0.1299632192
3853.07666,-0.1296664774
3851.79102,-0.1293177456
3850.50537,-0.1290658265
3849.21973,-0.1289252639
3847.93408,-0.1288270056
3846.64844,-0.1287500113
3845.36279,-0.1287315637
3844.07715,-0.1288042068
3842.79150,-0.1289671659
3841.50586,-0.1291820705
3840.22021,-0.1293675303
3838.93457,-0.1294376552
3837.64893,-0.1293602139
3836.36328,-0.1291592270
3835.07764,-0.1288730800
3833.79199,-0.1285388768
3832.50635,-0.1281932145
3831.22070,-0.1278718710
3829.93506,-0.1276115328
3828.64941,-0.1274450123
3827.36377,-0.1273733228
3826.07813,-0.1273686290
3824.79248,-0.1274069250
3823.50684,-0.1274544448
3822.22119,-0.1274358630
3820.93555,-0.1273093373
3819.64990,-0.1271631569
3818.36426,-0.1271177828
3817.07861,-0.1271373034
3815.79297,-0.1270619929
3814.50732,-0.1268353462
3813.22168,-0.1265875995
3811.93604,-0.1264730096
3810.65039,-0.1265078038
3809.36475,-0.1265816689
3808.07910,-0.1265899241
3806.79346,-0.1265603006
3805.50781,-0.1266387403
3804.22217,-0.1268981844
3802.93652,-0.1272044182
3801.65088,-0.1273579746
3800.36523,-0.1273458302
3799.07959,-0.1273426712
3797.79395,-0.1274721324
3796.50830,-0.1276896298
3795.22266,-0.1279027313
3793.93701,-0.1280839294
3792.65137,-0.1282506734
3791.36572,-0.1284161359
3790.08008,-0.1285883635
3788.79443,-0.1287631243
3787.50879,-0.1289116144
3786.22314,-0.1290226579
3784.93750,-0.1291568130
3783.65186,-0.1294028014
3782.36621,-0.1297675371
3781.08057,-0.1301546842
3779.79492,-0.1304708570
3778.50928,-0.1307108700
3777.22363,-0.1309221387
3775.93799,-0.1311286092
3774.65234,-0.1313277334
3773.36670,-0.1315232068
3772.08105,-0.1317134202
3770.79541,-0.1318666637
3769.50977,-0.1319559067
3768.22412,-0.1319991052
3766.93848,-0.1320232749
3765.65283,-0.1320076883
3764.36719,-0.1319191754
3763.08154,-0.1317864507
3761.79590,-0.1316768527
3760.51025,-0.1316017210
3759.22461,-0.1315008402
3757.93896,-0.1313350350
3756.65332,-0.1311432421
3755.36768,-0.1309962720
3754.08203,-0.1309323460
3752.79639,-0.1309424192
3751.51074,-0.1309758574
3750.22510,-0.1309679300
3748.93945,-0.1309042424
3747.65381,-0.1308417022
3746.36816,-0.1308202446
3745.08252,-0.1307848543
3743.79688,-0.1306599677
3742.51123,-0.1304835081
3741.22559,-0.1303910017
3739.93994,-0.1304686964
3738.65430,-0.1306803674
3737.36865,-0.1309213191
3736.08301,-0.1310990304
3734.79736,-0.1311723143
3733.51172,-0.1311570257
3732.22607,-0.1311133355
3730.94043,-0.1311185807
3729.65479,-0.1312229484
3728.36914,-0.1314145774
3727.08350,-0.1316284239
3725.79785,-0.1318069994
3724.51221,-0.1319489777
3723.22656,-0.1320886463
3721.94092,-0.1322437078
3720.65527,-0.1324133873
3719.36963,-0.1326006651
3718.08398,-0.1328094751
3716.79834,-0.1330294758
3715.51270,-0.1332482249
3714.22705,-0.1334638745
3712.94141,-0.1336734295
3711.65576,-0.1338525116
3710.37012,-0.1339516044
3709.08447,-0.1339211762
3707.79883,-0.1337669939
3706.51318,-0.1335781664
3705.22754,-0.1334625781
3703.94189,-0.1334423423
3702.65625,-0.1334457099
3701.37061,-0.1334036142
3700.08496,-0.1333042532
3698.79932,-0.1331593394
3697.51367,-0.1329816580
3696.22803,-0.1328145415
3694.94238,-0.1327186227
3693.65674,-0.1326978505
3692.37109,-0.1326710135
3691.08545,-0.1325437427
3689.79980,-0.1322925538
3688.51416,-0.1319653690
3687.22852,-0.1316220611
3685.94287,-0.1312989742
3684.65723,-0.1310232878
3683.37158,-0.1308178008
3682.08594,-0.1306879967
3680.80029,-0.1306398511
3679.51465,-0.1307028979
3678.22900,-0.1308710128
3676.94336,-0.1310224086
3675.65771,-0.1309920847
3674.37207,-0.1307749599
3673.08643,-0.1305566430
3671.80078,-0.1304907799
3670.51514,-0.1305383146
3669.22949,-0.1305794120
3667.94385,-0.1305961758
3666.65820,-0.1306703836
3665.37256,-0.1308437437
3664.08691,-0.1310570985
3662.80127,-0.1312177926
3661.51563,-0.1312996149
3660.22998,-0.1313638687
3658.94434,-0.1314801574
3657.65869,-0.1316402107
3656.37305,-0.1317898482
3655.08740,-0.1319353729
3653.80176,-0.1321539283
3652.51611,-0.1324758679
3651.23047,-0.1328051984
3649.94482,-0.1329842359
3648.65918,-0.1329244822
3647.37354,-0.1326748133
3646.08789,-0.1323830634
3644.80225,-0.1321863681
3643.51660,-0.1321088672
3642.23096,-0.1320495903
3640.94531,-0.1318800747
3639.65967,-0.1315687448
3638.37402,-0.1312093735
3637.08838,-0.1309278607
3635.80273,-0.1307675689
3634.51709,-0.1306827068
3633.23145,-0.1306217313
3631.94580,-0.1305600554
3630.66016,-0.1304372549
3629.37451,-0.1301380694
3628.08887,-0.1296140552
3626.80322,-0.1289880425
3625.51758,-0.1284610033
3624.23193,-0.1281338632
3622.94629,-0.1279585212
3621.66064,-0.1278203428
3620.37500,-0.1276230812
3619.08936,-0.1273302585
3617.80371,-0.1269844919
3616.51807,-0.1266863793
3615.23242,-0.1265234202
3613.94678,-0.1265072823
3612.66113,-0.1265783161
3611.37549,-0.1266532838
3610.08984,-0.1266653836
3608.80420,-0.1265857965
3607.51855,-0.1264385730
3606.23291,-0.1262982190
3604.94727,-0.1262495369
3603.66162,-0.1263316870
3602.37598,-0.1265232712
3601.09033,-0.1267709136
3599.80469,-0.1270160824
3598.51904,-0.1272011995
3597.23340,-0.1272862852
3595.94775,-0.1272841543
3594.66211,-0.1272683293
3593.37646,-0.1273278743
3592.09082,-0.1275147349
3590.80518,-0.1278102249
3589.51953,-0.1281175166
3588.23389,-0.1282971650
3586.94824,-0.1282651573
3585.66260,-0.1280636191
3584.37695,-0.1278136820
3583.09131,-0.1276054382
3581.80566,-0.1274623722
3580.52002,-0.1273720562
3579.23438,-0.1272990108
3577.94873,-0.1271873713
3576.66309,-0.1269920170
3575.37744,-0.1267207116
3574.09180,-0.1264257878
3572.80615,-0.1261654496
3571.52051,-0.1259720474
3570.23486,-0.1258261353
3568.94922,-0.1256418079
3567.66357,-0.1253083944
3566.37793,-0.1247894615
3565.09229,-0.1241725236
3563.80664,-0.1236040145
3562.52100,-0.1231741235
3561.23535,-0.1228693277
3559.94971,-0.1226114184
3558.66406,-0.1223298162
3557.37842,-0.1220050901
3556.09277,-0.1216553077
3554.80713,-0.1212987751
3553.52148,-0.1209512427
3552.23584,-0.1206497997
3550.95020,-0.1204372644
3549.66455,-0.1203033850
3548.37891,-0.1201722994
3547.09326,-0.1199749559
3545.80762,-0.1197197959
3544.52197,-0.1194708273
3543.23633,-0.1192841232
3541.95068,-0.1191861704
3540.66504,-0.1191829741
3539.37939,-0.1192429811
3538.09375,-0.1192855462
3536.80811,-0.1192412600
3535.52246,-0.1191293150
3534.23682,-0.1190383509
3532.95117,-0.1190285906
3531.66553,-0.1190823540
3530.37988,-0.1191498563
3529.09424,-0.1191967055
3527.80859,-0.1191985607
3526.52295,-0.1191338077
3525.23730,-0.1190128550
3523.95166,-0.1188837737
3522.66602,-0.1187950447
3521.38037,-0.1187551022
3520.09473,-0.1187338382
3518.80908,-0.1186874360
3517.52344,-0.1185820550
3516.23779,-0.1184089333
3514.95215,-0.1181796119
3513.66650,-0.1179122999
3512.38086,-0.1176347584
3511.09521,-0.1173926741
3509.80957,-0.1172124296
3508.52393,-0.1170492694
3507.23828,-0.1168124005
3505.95264,-0.1164578125
3504.66699,-0.1160310507
3503.38135,-0.1156058535
3502.09570,-0.1152199507
3500.81006,-0.1148779169
3499.52441,-0.1145736277
3498.23877,-0.1142764986
3496.95313,-0.1139318794
3495.66748,-0.1135113090
3494.38184,-0.1130528674
3493.09619,-0.1126320660
3491.81055,-0.1122988611
3490.52490,-0.1120492294
3489.23926,-0.1118276045
3487.95361,-0.1115613282
3486.66797,-0.1112309322
3485.38232,-0.1109109297
3484.09668,-0.1106972024
3482.81104,-0.1105827466
3481.52539,-0.1104628071
3480.23975,-0.1102743819
3478.95410,-0.1100741699
3477.66846,-0.1099576578
3476.38281,-0.1099536419
3475.09717,-0.1100257710
3473.81152,-0.1101227701
3472.52588,-0.1101972982
3471.24023,-0.1102060676
3469.95459,-0.1101359427
3468.66895,-0.1100145280
3467.38330,-0.1098942757
3466.09766,-0.1098213494
3464.81201,-0.1098029315
3463.52637,-0.1097886190
3462.24072,-0.1096977741
3460.95508,-0.1094882786
3459.66943,-0.1091924235
3458.38379,-0.1088853031
3457.09814,-0.1086283848
3455.81250,-0.1084380969
3454.52686,-0.1082916930
3453.24121,-0.1081609577
3451.95557,-0.1080436930
3450.66992,-0.1079549640
3449.38428,-0.1078832522
3448.09863,-0.1077804491
3446.81299,-0.1076048985
3445.52734,-0.1073555127
3444.24170,-0.1070555523
3442.95605,-0.1067212075
3441.67041,-0.1063688546
3440.38477,-0.1060316861
3439.09912,-0.1057332456
3437.81348,-0.1054491401
3436.52783,-0.1051219329
3435.24219,-0.1047215089
3433.95654,-0.1042690873
3432.67090,-0.1038186699
3431.38525,-0.1034463495
3430.09961,-0.1032450795
3428.81396,-0.1032581031
3427.52832,-0.1034021601
3426.24268,-0.1035191640
3424.95703,-0.1035158634
3423.67139,-0.1034130529
3422.38574,-0.1032668725
3421.10010,-0.1031101495
3419.81445,-0.1029837206
3418.52881,-0.1029445156
3417.24316,-0.1030130163
3415.95752,-0.1031494290
3414.67188,-0.1032951102
3413.38623,-0.1034138277
3412.10059,-0.1034974977
3410.81494,-0.1035623997
3409.52930,-0.1036362723
3408.24365,-0.1037394628
3406.95801,-0.1038811132
3405.67236,-0.1040670276
3404.38672,-0.1042826399
3403.10107,-0.1044813991
3401.81543,-0.1046302542
3400.52979,-0.1047681272
3399.24414,-0.1049813777
3397.95850,-0.1053039730
3396.67285,-0.1056694463
3395.38721,-0.1059793606
3394.10156,-0.1062006578
3392.81592,-0.1063775420
3391.53027,-0.1065538153
3390.24463,-0.1067093462
3388.95898,-0.1067951322
3387.67334,-0.1068138480
3386.38770,-0.1068358272
3385.10205,-0.1069290861
3383.81641,-0.1070852056
3382.53076,-0.1072222888
3381.24512,-0.1072631553
3379.95947,-0.1072030067
3378.67383,-0.1071004122
3377.38818,-0.1070092916
3376.10254,-0.1069437414
3374.81689,-0.1069058552
3373.53125,-0.1069086120
3372.24561,-0.1069503799
3370.95996,-0.1069918573
3369.67432,-0.1069786176
3368.38867,-0.1068767905
3367.10303,-0.1066873148
3365.81738,-0.1064491421
3364.53174,-0.1062255055
3363.24609,-0.1060720757
3361.96045,-0.1060056537
3360.67480,-0.1059976444
3359.38916,-0.1059969366
3358.10352,-0.1059797406
3356.81787,-0.1059883684
3355.53223,-0.1060983837
3354.24658,-0.1063315421
3352.96094,-0.1066284701
3351.67529,-0.1069213897
3350.38965,-0.1071987897
3349.10400,-0.1074811965
3347.81836,-0.1077741534
3346.53271,-0.1080604196
3345.24707,-0.1083151773
3343.96143,-0.1085332632
3342.67578,-0.1087629646
3341.39014,-0.1090893373
3340.10449,-0.1095443740
3338.81885,-0.1100586653
3337.53320,-0.1105417684
3336.24756,-0.1109773144
3334.96191,-0.1114030480
3333.67627,-0.1118228063
3332.39063,-0.1121946797
3331.10498,-0.1124994755
3329.81934,-0.1127772182
3328.53369,-0.1130777970
3327.24805,-0.1133909896
3325.96240,-0.1136518419
3324.67676,-0.1138249934
3323.39111,-0.1139678285
3322.10547,-0.1141737774
3320.81982,-0.1144631729
3319.53418,-0.1147593334
3318.24854,-0.1149720103
3316.96289,-0.1150753498
3315.67725,-0.1150944158
3314.39160,-0.1150631607
3313.10596,-0.1150196567
3311.82031,-0.1150046438
3310.53467,-0.1150164753
3309.24902,-0.1149846166
3307.96338,-0.1148315445
3306.67773,-0.1145604625
3305.39209,-0.1142449379
3304.10645,-0.1139500216
3302.82080,-0.1137055680
3301.53516,-0.1135400385
3300.24951,-0.1134745851
3298.96387,-0.1134813204
3297.67822,-0.1134974733
3296.39258,-0.1134982705
3295.10693,-0.1135161966
3293.82129,-0.1135843173
3292.53564,-0.1136934906
3291.25000,-0.1138160750
3289.96436,-0.1139407530
3288.67871,-0.1140689701
3287.39307,-0.1141853631
3286.10742,-0.1142625287
3284.82178,-0.1143080145
3283.53613,-0.1143898144
3282.25049,-0.1145767570
3280.96484,-0.1148583740
3279.67920,-0.1151656508
3278.39355,-0.1154712662
3277.10791,-0.1158105135
3275.82227,-0.1161930412
3274.53662,-0.1165552735
3273.25098,-0.1168466657
3271.96533,-0.1171078756
3270.67969,-0.1174200848
3269.39404,-0.1177968979
3268.10840,-0.1181736663
3266.82275,-0.1184868068
3265.53711,-0.1187277287
3264.25146,-0.1189221442
3262.96582,-0.1190975904
3261.68018,-0.1192665100
3260.39453,-0.1194153130
3259.10889,-0.1195103005
3257.82324,-0.1195394397
3256.53760,-0.1195422560
3255.25195,-0.1195697486
3253.96631,-0.1196184531
3252.68066,-0.1196337119
3251.39502,-0.1195733994
3250.10938,-0.1194408238
3248.82373,-0.1192641929
3247.53809,-0.1190746427
3246.25244,-0.1189079881
3244.96680,-0.1187993735
3243.68115,-0.1187585741
3242.39551,-0.1187533811
3241.10986,-0.1187206358
3239.82422,-0.1186049432
3238.53857,-0.1183969453
3237.25293,-0.1181418672
3235.96729,-0.1179074571
3234.68164,-0.1177450716
3233.39600,-0.1176774502
3232.11035,-0.1177079156
3230.82471,-0.1178206354
3229.53906,-0.1179794595
3228.25342,-0.1181423068
3226.96777,-0.1182894781
3225.68213,-0.1184386462
3224.39648,-0.1186307892
3223.11084,-0.1188954338
3221.82520,-0.1192288175
3220.53955,-0.1196046174
3219.25391,-0.1199997663
3217.96826,-0.1203971431
3216.68262,-0.1207703650
3215.39697,-0.1210925058
3214.11133,-0.1213681102
3212.82568,-0.1216400862
3211.54004,-0.1219480112
3210.25439,-0.1222924739
3208.96875,-0.1226450428
3207.68311,-0.1229759157
3206.39746,-0.1232624575
3205.11182,-0.1234877855
3203.82617,-0.1236478016
3202.54053,-0.1237482876
3201.25488,-0.1237910017
3199.96924,-0.1237758547
3198.68359,-0.1237182096
3197.39795,-0.1236387938
3196.11230,-0.1235346869
3194.82666,-0.1233805940
3193.54102,-0.1231708899
3192.25537,-0.1229354143
3190.96973,-0.1227044240
3189.68408,-0.1224688888
3188.39844,-0.1221924275
3187.11279,-0.1218557656
3185.82715,-0.1214802265
3184.54150,-0.1211025715
3183.25586,-0.1207409576
3181.97021,-0.1203913316
3180.68457,-0.1200565845
3179.39893,-0.1197629720
3178.11328,-0.1195391491
3176.82764,-0.1193819866
3175.54199,-0.1192487478
3174.25635,-0.1190856919
3172.97070,-0.1188768744
3171.68506,-0.1186701506
3170.39941,-0.1185437888
3169.11377,-0.1185381934
3167.82813,-0.1186295599
3166.54248,-0.1187724099
3165.25684,-0.1189506054
3163.97119,-0.1191707850
3162.68555,-0.1194261983
3161.39990,-0.1196954101
3160.11426,-0.1199720055
3158.82861,-0.1202727854
3157.54297,-0.1206094846
3156.25732,-0.1209680587
3154.97168,-0.1213247180
3153.68604,-0.1216680557
3152.40039,-0.1219986007
3151.11475,-0.1223123968
3149.82910,-0.1225987673
3148.54346,-0.1228525937
3147.25781,-0.1230753213
3145.97217,-0.1232657731
3144.68652,-0.1234182268
3143.40088,-0.1235352606
3142.11523,-0.1236294210
3140.82959,-0.1237078011
3139.54395,-0.1237568930
3138.25830,-0.1237482131
3136.97266,-0.1236553863
3135.68701,-0.1234687716
3134.40137,-0.1232017353
3133.11572,-0.1228896230
3131.83008,-0.1225744411
3130.54443,-0.1222765297
3129.25879,-0.1219799891
3127.97314,-0.1216543242
3126.68750,-0.1212893426
3125.40186,-0.1209005862
3124.11621,-0.1204998866
3122.83057,-0.1200781018
3121.54492,-0.1196298152
3120.25928,-0.1191883832
3118.97363,-0.1188139468
3117.68799,-0.1185394078
3116.40234,-0.1183368266
3115.11670,-0.1181477979
3113.83105,-0.1179428399
3112.54541,-0.1177453175
3111.25977,-0.1176033244
3109.97412,-0.1175503209
3108.68848,-0.1175872833
3107.40283,-0.1176932380
3106.11719,-0.1178482547
3104.83154,-0.1180452704
3103.54590,-0.1182782501
3102.26025,-0.1185285375
3100.97461,-0.1187770441
3099.68896,-0.1190323085
3098.40332,-0.1193264574
3097.11768,-0.1196732149
3095.83203,-0.1200391650
3094.54639,-0.1203672811
3093.26074,-0.1206272840
3091.97510,-0.1208372712
3090.68945,-0.1210377142
3089.40381,-0.1212459579
3088.11816,-0.1214376166
3086.83252,-0.1215734929
3085.54688,-0.1216434091
3084.26123,-0.1216738522
3082.97559,-0.1216876209
3081.68994,-0.1216641217
3080.40430,-0.1215567440
3079.11865,-0.1213416606
3077.83301,-0.1210394874
3076.54736,-0.1206912473
3075.26172,-0.1203330606
3073.97607,-0.1199880540
3072.69043,-0.1196551993
3071.40479,-0.1193021908
3070.11914,-0.1188924536
3068.83350,-0.1184304431
3067.54785,-0.1179673970
3066.26221,-0.1175551489
3064.97656,-0.1172034070
3063.69092,-0.1168867573
3062.40527,-0.1165832877
3061.11963,-0.1162994951
3059.83398,-0.1160595492
3058.54834,-0.1158723682
3057.26270,-0.1157193035
3055.97705,-0.1155811772
3054.69141,-0.1154734120
3053.40576,-0.1154392809
3052.12012,-0.1155080348
3050.83447,-0.1156731844
3049.54883,-0.1159057841
3048.26318,-0.1161743775
3046.97754,-0.1164508015
3045.69189,-0.1167208031
3044.40625,-0.1169987693
3043.12061,-0.1173158213
3041.83496,-0.1176755428
3040.54932,-0.1180362403
3039.26367,-0.1183544546
3037.97803,-0.1186395362
3036.69238,-0.1189387366
3035.40674,-0.1192656532
3034.12109,-0.1195693240
3032.83545,-0.1197835952
3031.54980,-0.1198907718
3030.26416,-0.1199274138
3028.97852,-0.1199413538
3027.69287,-0.1199461073
3026.40723,-0.1199081838
3025.12158,-0.1197760254
3023.83594,-0.1195327193
3022.55029,-0.1192177236
3021.26465,-0.1188902333
3019.97900,-0.1185734645
3018.69336,-0.1182393283
3017.40771,-0.1178380549
3016.12207,-0.1173396483
3014.83643,-0.1167494059
3013.55078,-0.1160988286
3012.26514,-0.1154263765
3010.97949,-0.1147720963
3009.69385,-0.1141790375
3008.40820,-0.1136759818
3007.12256,-0.1132502854
3005.83691,-0.1128513291
3004.55127,-0.1124336720
3003.26563,-0.1119961366
3001.97998,-0.1115821451
3000.69434,-0.1112487540
2999.40869,-0.1110281721
2998.12305,-0.1109109297
2996.83740,-0.1108656824
2995.55176,-0.1108735129
2994.26611,-0.1109316126
2992.98047,-0.1110310182
2991.69482,-0.1111564115
2990.40918,-0.1113114506
2989.12354,-0.1115195528
2987.83789,-0.1117919087
2986.55225,-0.1121134534
2985.26660,-0.1124648005
2983.98096,-0.1128326952
2982.69531,-0.1131967902
2981.40967,-0.1135369316
2980.12402,-0.1138678566
2978.83838,-0.1142390147
2977.55273,-0.1146834120
2976.26709,-0.1151816770
2974.98145,-0.1156887934
2973.69580,-0.1161806434
2972.41016,-0.1166597754
2971.12451,-0.1171295419
2969.83887,-0.1175839752
2968.55322,-0.1180174947
2967.26758,-0.1184263304
2965.98193,-0.1187881455
2964.69629,-0.1190503240
2963.41064,-0.1191497594
2962.12500,-0.1190524697
2960.83936,-0.1187741309
2959.55371,-0.1183603555
2958.26807,-0.1178523600
2956.98242,-0.1172719523
2955.69678,-0.1166360304
2954.41113,-0.1159710810
2953.12549,-0.1153078452
2951.83984,-0.1146683693
2950.55420,-0.1140725166
2949.26855,-0.1135648116
2947.98291,-0.1132287383
2946.69727,-0.1131626740
2945.41162,-0.1134296507
2944.12598,-0.1140380725
2942.84033,-0.1149814874
2941.55469,-0.1162838787
2940.26904,-0.1179808006
2938.98340,-0.1200542301
2937.69775,-0.1224222258
2936.41211,-0.1250053346
2935.12646,-0.1277723908
2933.84082,-0.1307004243
2932.55518,-0.1337128878
2931.26953,-0.1366872936
2929.98389,-0.1395202279
2928.69824,-0.1421700120
2927.41260,-0.1446476430
2926.12695,-0.1469674408
2924.84131,-0.1490878165
2923.55566,-0.1508897692
2922.27002,-0.1522375494
2920.98438,-0.1530622244
2919.69873,-0.1533574611
2918.41309,-0.1530776620
2917.12744,-0.1520790458
2915.84180,-0.1502251476
2914.55615,-0.1475784034
2913.27051,-0.1444672942
2911.98486,-0.1413369328
2910.69922,-0.1385215521
2909.41357,-0.1361305714
2908.12793,-0.1341054142
2906.84229,-0.1323545128
2905.55664,-0.1308422685
2904.27100,-0.1295804679
2902.98535,-0.1285743415
2901.69971,-0.1277965754
2900.41406,-0.1272037029
2899.12842,-0.1267546266
2897.84277,-0.1264059097
2896.55713,-0.1261215359
2895.27148,-0.1259038299
2893.98584,-0.1257900894
2892.70020,-0.1257846504
2891.41455,-0.1258131564
2890.12891,-0.1257783622
2888.84326,-0.1256432384
2887.55762,-0.1254279166
2886.27197,-0.1251457781
2884.98633,-0.1247843876
2883.70068,-0.1243412569
2882.41504,-0.1238417998
2881.12939,-0.1233210787
2879.84375,-0.1228124425
2878.55811,-0.1223543286
2877.27246,-0.1219882742
2875.98682,-0.1217406392
2874.70117,-0.1216045171
2873.41553,-0.1215362027
2872.12988,-0.1214749813
2870.84424,-0.1213816106
2869.55859,-0.1212649420
2868.27295,-0.1211759225
2866.98730,-0.1211800873
2865.70166,-0.1213339418
2864.41602,-0.1216782629
2863.13037,-0.1222374290
2861.84473,-0.1230152994
2860.55908,-0.1239915416
2859.27344,-0.1251437664
2857.98779,-0.1264812350
2856.70215,-0.1280382127
2855.41650,-0.1298177838
2854.13086,-0.1317721456
2852.84521,-0.1338479072
2851.55957,-0.1359673440
2850.27393,-0.1378715634
2848.98828,-0.1390390843
2847.70264,-0.1389424205
2846.41699,-0.1374817938
2845.13135,-0.1351051778
2843.84570,-0.1324802637
2842.56006,-0.1300839782
2841.27441,-0.1280571371
2839.98877,-0.1263284534
2838.70313,-0.1247963086
2837.41748,-0.1233941391
2836.13184,-0.1220602095
2834.84619,-0.1207276583
2833.56055,-0.1193604097
2832.27490,-0.1179683283
2830.98926,-0.1165813282
2829.70361,-0.1152257100
2828.41797,-0.1139123589
2827.13232,-0.1126289293
2825.84668,-0.1113509908
2824.56104,-0.1100772843
2823.27539,-0.1088467464
2821.98975,-0.1077092737
2820.70410,-0.1066944897
2819.41846,-0.1058102697
2818.13281,-0.1050563827
2816.84717,-0.1044360921
2815.56152,-0.1039707437
2814.27588,-0.1037003621
2812.99023,-0.1036509871
2811.70459,-0.1038000435
2810.41895,-0.1040799767
2809.13330,-0.1044102088
2807.84766,-0.1047213823
2806.56201,-0.1049654782
2805.27637,-0.1051247418
2803.99072,-0.1052041128
2802.70508,-0.1052041575
2801.41943,-0.1050996631
2800.13379,-0.1048487425
2798.84814,-0.1044182256
2797.56250,-0.1037989408
2796.27686,-0.1030087173
2794.99121,-0.1020836011
2793.70557,-0.1010474488
2792.41992,-0.0998890772
2791.13428,-0.0985881984
2789.84863,-0.0971749574
2788.56299,-0.0957439095
2787.27734,-0.0943864956
2785.99170,-0.0931282863
2784.70605,-0.0919573829
2783.42041,-0.0908912346
2782.13477,-0.0899772942
2780.84912,-0.0892207697
2779.56348,-0.0885546729
2778.27783,-0.0878949687
2776.99219,-0.0871979073
2775.70654,-0.0864416510
2774.42090,-0.0855671316
2773.13525,-0.0844604149
2771.84961,-0.0829901546
2770.56396,-0.0810641274
2769.27832,-0.0786687955
2767.99268,-0.0758649260
2766.70703,-0.0727176070
2765.42139,-0.0692273378
2764.13574,-0.0653510541
2762.85010,-0.0610843301
2761.56445,-0.0564569235
2760.27881,-0.0514307097
2758.99316,-0.0458762199
2757.70752,-0.0396953076
2756.42188,-0.0328972489
2755.13623,-0.0254907645
2753.85059,-0.0173507575
2752.56494,-0.0082188128
2751.27930,0.0022394382
2749.99365,0.0144070769
2748.70801,0.0286388453
2747.42236,0.0451542288
2746.13672,0.0640771762
2744.85107,0.0856425986
2743.56543,0.1102800667
2742.27979,0.1384773403
2740.99414,0.1707010865
2739.70850,0.2075560391
2738.42285,0.2499888986
2737.13721,0.2990144491
2735.85156,0.3553726673
2734.56592,0.4193634987
2733.28027,0.4917855859
2731.99463,0.5737686157
2730.70898,0.6665717363
2729.42334,0.7687380314
2728.13770,0.8813323379
2726.85205,1.0029840469
2725.56641,1.1308221817
2724.28076,1.2268085480
2722.99512,1.2966804504
2721.70947,1.3295767307
2720.42383,1.3181058168
2719.13818,1.2600080967
2717.85254,1.1968398094
2716.56689,1.1440263987
2715.28125,1.1041579247
2713.99561,1.0891216993
2712.70996,1.0797590017
2711.42432,1.0775449276
2710.13867,1.0810428858
2708.85303,1.0906021595
2707.56738,1.1031968594
2706.28174,1.1178804636
2704.99609,1.1315605640
2703.71045,1.1416385174
2702.42480,1.1471813917
2701.13916,1.1490508318
2699.85352,1.1487584114
2698.56787,1.1492562294
2697.28223,1.1528240442
2695.99658,1.1576232910
2694.71094,1.1583244801
2693.42529,1.1527850628
2692.13965,1.1456216574
2690.85400,1.1437958479
2689.56836,1.1489877701
2688.28271,1.1567411423
2686.99707,1.1614315510
2685.71143,1.1622247696
2684.42578,1.1611465216
2683.14014,1.1586004496
2681.85449,1.1529958248
2680.56885,1.1450760365
2679.28320,1.1389242411
2677.99756,1.1386535168
2676.71191,1.1442569494
2675.42627,1.1515789032
2674.14063,1.1545562744
2672.85498,1.1489852667
2671.56934,1.1354285479
2670.28369,1.1188381910
2668.99805,1.1043450832
2667.71240,1.0942463875
2666.42676,1.0881233215
2665.14111,1.0871051550
2663.85547,1.0927126408
2662.56982,1.1035863161
2661.28418,1.1132571697
2659.99854,1.1178771257
2658.71289,1.1204245090
2657.42725,1.1274677515
2656.14160,1.1426064968
2654.85596,1.1650487185
2653.57031,1.1914353371
2652.28467,1.2177314758
2650.99902,1.2399836779
2649.71338,1.2569793463
2648.42773,1.2706238031
2647.14209,1.2832396030
2645.85645,1.2954549789
2644.57080,1.3070794344
2643.28516,1.3184703588
2641.99951,1.3299301863
2640.71387,1.3416550159
2639.42822,1.3554190397
2638.14258,1.3734241724
2636.85693,1.3943176270
2635.57129,1.4100718498
2634.28564,1.4168083668
2633.00000,1.4198334217
2631.71436,1.4265552759
2630.42871,1.4353667498
2629.14307,1.4400361776
2627.85742,1.4410243034
2626.57178,1.4486113787
2625.28613,1.4676606655
2624.00049,1.4899475574
2622.71484,1.4990235567
2621.42920,1.4876412153
2620.14355,1.4649759531
2618.85791,1.4462050200
2617.57227,1.4394071102
2616.28662,1.4420742989
2615.00098,1.4436881542
2613.71533,1.4342222214
2612.42969,1.4131941795
2611.14404,1.3890340328
2609.85840,1.3676648140
2608.57275,1.3508421183
2607.28711,1.3383400440
2606.00146,1.3315908909
2604.71582,1.3297075033
2603.43018,1.3335732222
2602.14453,1.3457322121
2600.85889,1.3695172071
2599.57324,1.4001172781
2598.28760,1.4306944609
2597.00195,1.4580066204
2595.71631,1.4873476028
2594.43066,1.5221391916
2593.14502,1.5616436005
2591.85938,1.5993770361
2590.57373,1.6266438961
2589.28809,1.6426283121
2588.00244,1.6539338827
2586.71680,1.6640805006
2585.43115,1.6728893518
2584.14551,1.6736153364
2582.85986,1.6643604040
2581.57422,1.6392463446
2580.28857,1.5999934673
2579.00293,1.5562537909
2577.71729,1.5247377157
2576.43164,1.5124028921
2575.14600,1.5141271353
2573.86035,1.5133759975
2572.57471,1.5057449341
2571.28906,1.4983112812
2570.00342,1.5055242777
2568.71777,1.5303016901
2567.43213,1.5669690371
2566.14648,1.5982816219
2564.86084,1.6124264002
2563.57520,1.6205745935
2562.28955,1.6496148109
2561.00391,1.7123385668
2559.71826,1.7949715853
2558.43262,1.8621320724
2557.14697,1.9041169882
2555.86133,1.9468529224
2554.57568,1.9786289930
2553.29004,1.9302809238
2552.00439,1.8431416750
2550.71875,1.7905647755
2549.43311,1.7552663088
2548.14746,1.7363783121
2546.86182,1.7246096134
2545.57617,1.7130054235
2544.29053,1.7036665678
2543.00488,1.6954238415
2541.71924,1.6893222332
2540.43359,1.6866651773
2539.14795,1.7002458572
2537.86230,1.7235143185
2536.57666,1.7404596806
2535.29102,1.7398587465
2534.00537,1.7364343405
2532.71973,1.7384107113
2531.43408,1.7377679348
2530.14844,1.7172939777
2528.86279,1.6817430258
2527.57715,1.6453961134
2526.29150,1.6116162539
2525.00586,1.5728956461
2523.72021,1.5254007578
2522.43457,1.4742026329
2521.14893,1.4288926125
2519.86328,1.3939379454
2518.57764,1.3685444593
2517.29199,1.3496391773
2516.00635,1.3377135992
2514.72070,1.3334029913
2513.43506,1.3350600004
2512.14941,1.3381084204
2510.86377,1.3404446840
2509.57813,1.3432778120
2508.29248,1.3504745960
2507.00684,1.3651723862
2505.72119,1.3898572922
2504.43555,1.4219325781
2503.14990,1.4542930126
2501.86426,1.4753078222
2500.57861,1.4847509861
2499.29297,1.4907190800
2498.00732,1.5005639791
2496.72168,1.5159082413
2495.43604,1.5372642279
2494.15039,1.5612426996
2492.86475,1.5798573494
2491.57910,1.5801056623
2490.29346,1.5609091520
2489.00781,1.5375772715
2487.72217,1.5316311121
2486.43652,1.5405098200
2485.15088,1.5546914339
2483.86523,1.5653507710
2482.57959,1.5783421993
2481.29395,1.5928292274
2480.00830,1.6070728302
2478.72266,1.6160717010
2477.43701,1.6242198944
2476.15137,1.6295980215
2474.86572,1.6295250654
2473.58008,1.6180443764
2472.29443,1.5961152315
2471.00879,1.5715062618
2469.72314,1.5518503189
2468.43750,1.5366659164
2467.15186,1.5178962946
2465.86621,1.4878677130
2464.58057,1.4471888542
2463.29492,1.4045779705
2462.00928,1.3704297543
2460.72363,1.3489489555
2459.43799,1.3385189772
2458.15234,1.3338371515
2456.86670,1.3307956457
2455.58105,1.3272669315
2454.29541,1.3248032331
2453.00977,1.3234289885
2451.72412,1.3215609789
2450.43848,1.3188365698
2449.15283,1.3201758862
2447.86719,1.3303291798
2446.58154,1.3478770256
2445.29590,1.3648097515
2444.01025,1.3769499063
2442.72461,1.3907392025
2441.43896,1.4170542955
2440.15332,1.4562262297
2438.86768,1.4938801527
2437.58203,1.5163635015
2436.29639,1.5292987823
2435.01074,1.5482956171
2433.72510,1.5768779516
2432.43945,1.6022437811
2431.15381,1.6119341850
2429.86816,1.6036947966
2428.58252,1.5837243795
2427.29688,1.5592474937
2426.01123,1.5439252853
2424.72559,1.5366131067
2423.43994,1.5378378630
2422.15430,1.5418779850
2420.86865,1.5461869240
2419.58301,1.5476155281
2418.29736,1.5496261120
2417.01172,1.5520900488
2415.72607,1.5567655563
2414.44043,1.5555927753
2413.15479,1.5507874489
2411.86914,1.5463726521
2410.58350,1.5426664352
2409.29785,1.5352048874
2408.01221,1.5204412937
2406.72656,1.4995533228
2405.44092,1.4746155739
2404.15527,1.4487298727
2402.86963,1.4232960939
2401.58398,1.4004137516
2400.29834,1.3830565214
2399.01270,1.3690851927
2397.72705,1.3577313423
2396.44141,1.3487756252
2395.15576,1.3415675163
2393.87012,1.3333334923
2392.58447,1.3222186565
2391.29883,1.3119527102
2390.01318,1.3111444712
2388.72754,1.3245882988
2387.44189,1.3499362469
2386.15625,1.3803771734
2384.87061,1.4104348421
2383.58496,1.4349296093
2382.29932,1.4513117075
2381.01367,1.4621406794
2379.72803,1.4758893251
2378.44238,1.4943442345
2377.15674,1.5128625631
2375.87109,1.5268160105
2374.58545,1.5366512537
2373.29980,1.5491659641
2372.01416,1.5628620386
2370.72852,1.5733768940
2369.44287,1.5843119621
2368.15723,1.5958535671
2366.87158,1.6010202169
2365.58594,1.5917719603
2364.30029,1.5787639618
2363.01465,1.5664908886
2361.72900,1.5639641285
2360.44336,1.5698109865
2359.15771,1.5861443281
2357.87207,1.6026567221
2356.58643,1.6161966324
2355.30078,1.6259454489
2354.01514,1.6332705021
2352.72949,1.6340029240
2351.44385,1.6236922741
2350.15820,1.6035739183
2348.87256,1.5796366930
2347.58691,1.5532217026
2346.30127,1.5186825991
2345.01563,1.4769145250
2343.72998,1.4389653206
2342.44434,1.4131771326
2341.15869,1.3986803293
2339.87305,1.3880543709
2338.58740,1.3740861416
2337.30176,1.3544325829
2336.01611,1.3327865601
2334.73047,1.3165268898
2333.44482,1.3122068644
2332.15918,1.3196995258
2330.87354,1.3331365585
2329.58789,1.3453462124
2328.30225,1.3542790413
2327.01660,1.3604388237
2325.73096,1.3654106855
2324.44531,1.3700029850
2323.15967,1.3767116070
2321.87402,1.3889335394
2320.58838,1.4111622572
2319.30273,1.4447592497
2318.01709,1.4864273071
2316.73145,1.5265473127
2315.44580,1.5565726757
2314.16016,1.5751559734
2312.87451,1.5861297846
2311.58887,1.5938705206
2310.30322,1.5974428654
2309.01758,1.5988379717
2307.73193,1.6075443029
2306.44629,1.6214380264
2305.16064,1.6294493675
2303.87500,1.6225886345
2302.58936,1.6172477007
2301.30371,1.6172651052
2300.01807,1.6314806938
2298.73242,1.6525361538
2297.44678,1.6691131592
2296.16113,1.6677464247
2294.87549,1.6511068344
2293.58984,1.6292914152
2292.30420,1.6039472818
2291.01855,1.5775127411
2289.73291,1.5513337851
2288.44727,1.5280722380
2287.16162,1.5058851242
2285.87598,1.4800271988
2284.59033,1.4501720667
2283.30469,1.4215418100
2282.01904,1.3979347944
2280.73340,1.3766061068
2279.44775,1.3534337282
2278.16211,1.3290008307
2276.87646,1.3082935810
2275.59082,1.2918362617
2274.30518,1.2757426500
2273.01953,1.2571871281
2271.73389,1.2400455475
2270.44824,1.2288295031
2269.16260,1.2226084471
2267.87695,1.2134538889
2266.59131,1.1945949793
2265.30566,1.1670099497
2264.02002,1.1382924318
2262.73438,1.1150112152
2261.44873,1.0981467962
2260.16309,1.0841461420
2258.87744,1.0685861111
2257.59180,1.0495057106
2256.30615,1.0274829865
2255.02051,1.0036654472
2253.73486,0.9779023528
2252.44922,0.9493367672
2251.16357,0.9184705019
2249.87793,0.8876048326
2248.59229,0.8586165309
2247.30664,0.8310347199
2246.02100,0.8031355143
2244.73535,0.7744969726
2243.44971,0.7464005947
2242.16406,0.7198724151
2240.87842,0.6945998669
2239.59277,0.6698239446
2238.30713,0.6455105543
2237.02148,0.6220690608
2235.73584,0.5995021462
2234.45020,0.5771713257
2233.16455,0.5544999838
2231.87891,0.5316740274
2230.59326,0.5095471144
2229.30762,0.4889119267
2228.02197,0.4698694348
2226.73633,0.4518964291
2225.45068,0.4344218075
2224.16504,0.4173174202
2222.87939,0.4008726180
2221.59375,0.3853279650
2220.30811,0.3705253899
2219.02246,0.3560845256
2217.73682,0.3418242633
2216.45117,0.3278774917
2215.16553,0.3144227266
2213.87988,0.3014667928
2212.59424,0.2888995707
2211.30859,0.2766516805
2210.02295,0.2647227943
2208.73730,0.2531484067
2207.45166,0.2420219034
2206.16602,0.2314554006
2204.88037,0.2214324325
2203.59473,0.2117390484
2202.30908,0.2021706998
2201.02344,0.1927740872
2199.73779,0.1837599427
2198.45215,0.1752520353
2197.16650,0.1672177315
2195.88086,0.1595693827
2194.59521,0.1521958262
2193.30957,0.1449361444
2192.02393,0.1376730055
2190.73828,0.1304388493
2189.45264,0.1233746260
2188.16699,0.1165964603
2186.88135,0.1101251617
2185.59570,0.1038867831
2184.31006,0.0977772772
2183.02441,0.0917720273
2181.73877,0.0859588832
2180.45313,0.0804009214
2179.16748,0.0750089809
2177.88184,0.0696353987
2176.59619,0.0642744377
2175.31055,0.0590827130
2174.02490,0.0541923121
2172.73926,0.0495594293
2171.45361,0.0450236537
2170.16797,0.0404940657
2168.88232,0.0360390469
2167.59668,0.0317800790
2166.31104,0.0277381260
2165.02539,0.0238419678
2163.73975,0.0200676043
2162.45410,0.0164824333
2161.16846,0.0131197860
2159.88281,0.0098663038
2158.59717,0.0065380619
2157.31152,0.0030752174
2156.02588,-0.0003811848
2154.74023,-0.0036298435
2153.45459,-0.0065955748
2152.16895,-0.0093486374
2150.88330,-0.0119762421
2149.59766,-0.0145019293
2148.31201,-0.0169258360
2147.02637,-0.0192738399
2145.74072,-0.0215704497
2144.45508,-0.0238133725
2143.16943,-0.0259992778
2141.88379,-0.0281440057
2140.59814,-0.0302469041
2139.31250,-0.0322558507
2138.02686,-0.0341098793
2136.74121,-0.0358214229
2135.45557,-0.0374862626
2134.16992,-0.0391921885
2132.88428,-0.0409321040
2131.59863,-0.0426270179
2130.31299,-0.0442212708
2129.02734,-0.0457234047
2127.74170,-0.0471646264
2126.45605,-0.0485572480
2125.17041,-0.0499012917
2123.88477,-0.0512035117
2122.59912,-0.0524732471
2121.31348,-0.0537145436
2120.02783,-0.0549282990
2118.74219,-0.0561152026
2117.45654,-0.0572704524
2116.17090,-0.0583836362
2114.88525,-0.0594484210
2113.59961,-0.0604697466
2112.31396,-0.0614542104
2111.02832,-0.0623945631
2109.74268,-0.0632725656
2108.45703,-0.0640813857
2107.17139,-0.0648405179
2105.88574,-0.0655841529
2104.60010,-0.0663361698
2103.31445,-0.0671002418
2102.02881,-0.0678687245
2100.74316,-0.0686359406
2099.45752,-0.0694025829
2098.17188,-0.0701708570
2096.88623,-0.0709370002
2095.60059,-0.0716880560
2094.31494,-0.0724035576
2093.02930,-0.0730658099
2091.74365,-0.0736730173
2090.45801,-0.0742524564
2089.17236,-0.0748549476
2087.88672,-0.0755224377
2086.60107,-0.0762500316
2085.31543,-0.0769800842
2084.02979,-0.0776535869
2082.74414,-0.0782701150
2081.45850,-0.0788843408
2080.17285,-0.0795388967
2078.88721,-0.0802159831
2077.60156,-0.0808679014
2076.31592,-0.0814759731
2075.03027,-0.0820615590
2073.74463,-0.0826553330
2072.45898,-0.0832719728
2071.17334,-0.0839034170
2069.88770,-0.0845230669
2068.60205,-0.0851052776
2067.31641,-0.0856453106
2066.03076,-0.0861549526
2064.74512,-0.0866397396
2063.45947,-0.0870985240
2062.17383,-0.0875414759
2060.88818,-0.0879824385
2059.60254,-0.0884139687
2058.31689,-0.0888081491
2057.03125,-0.0891536474
2055.74561,-0.0894725472
2054.45996,-0.0897930935
2053.17432,-0.0901165754
2051.88867,-0.0904231593
2050.60303,-0.0907067209
2049.31738,-0.0909866393
2048.03174,-0.0912856907
2046.74609,-0.0916074216
2045.46045,-0.0919410363
2044.17480,-0.0922756046
2042.88916,-0.0926028788
2041.60352,-0.0929117650
2040.31787,-0.0931931660
2039.03223,-0.0934461057
2037.74658,-0.0936727896
2036.46094,-0.0938748792
2035.17529,-0.0940576419
2033.88965,-0.0942355767
2032.60400,-0.0944234878
2031.31836,-0.0946243107
2030.03271,-0.0948285684
2028.74707,-0.0950231627
2027.46143,-0.0952009112
2026.17578,-0.0953612179
2024.89014,-0.0955040604
2023.60449,-0.0956273675
2022.31885,-0.0957315788
2021.03320,-0.0958243534
2019.74756,-0.0959127769
2018.46191,-0.0959971249
2017.17627,-0.0960695818
2015.89063,-0.0961230770
2014.60498,-0.0961572602
2013.31934,-0.0961798653
2012.03369,-0.0962026045
2010.74805,-0.0962334648
2009.46240,-0.0962686464
2008.17676,-0.0962937772
2006.89111,-0.0962980986
2005.60547,-0.0962856412
2004.31982,-0.0962707177
2003.03418,-0.0962648615
2001.74854,-0.0962699726
2000.46289,-0.0962870643
1999.17725,-0.0963206068
1997.89160,-0.0963712484
1996.60596,-0.0964291841
1995.32031,-0.0964840800
1994.03467,-0.0965394154
1992.74902,-0.0966129452
1991.46338,-0.0967196971
1990.17773,-0.0968598947
1988.89209,-0.0970226526
1987.60645,-0.0971965268
1986.32080,-0.0973735526
1985.03516,-0.0975487456
1983.74951,-0.0977226943
1982.46387,-0.0979070812
1981.17822,-0.0981204882
1979.89258,-0.0983722806
1978.60693,-0.0986512303
1977.32129,-0.0989311934
1976.03564,-0.0991902649
1974.75000,-0.0994239748
1973.46436,-0.0996457487
1972.17871,-0.0998762101
1970.89307,-0.1001273543
1969.60742,-0.1003882885
1968.32178,-0.1006286293
1967.03613,-0.1008208841
1965.75049,-0.1009667069
1964.46484,-0.1010952070
1963.17920,-0.1012330800
1961.89355,-0.1013812646
1960.60791,-0.1015219390
1959.32227,-0.1016396806
1958.03662,-0.1017287001
1956.75098,-0.1017871127
1955.46533,-0.1018192992
1954.17969,-0.1018383875
1952.89404,-0.1018588915
1951.60840,-0.1018818244
1950.32275,-0.1018932536
1949.03711,-0.1018807665
1947.75146,-0.1018487364
1946.46582,-0.1018129066
1945.18018,-0.1017795727
1943.89453,-0.1017355025
1942.60889,-0.1016672626
1941.32324,-0.1015856490
1940.03760,-0.1015203595
1938.75195,-0.1014895439
1937.46631,-0.1014843434
1936.18066,-0.1014813930
1934.89502,-0.1014659852
1933.60938,-0.1014425009
1932.32373,-0.1014312282
1931.03809,-0.1014514714
1929.75244,-0.1015061513
1928.46680,-0.1015852317
1927.18115,-0.1016797572
1925.89551,-0.1017858759
1924.60986,-0.1019001678
1923.32422,-0.1020232737
1922.03857,-0.1021607071
1920.75293,-0.1023047641
1919.46729,-0.1024275050
1918.18164,-0.1025089547
1916.89600,-0.1025642306
1915.61035,-0.1026264429
1914.32471,-0.1027079150
1913.03906,-0.1027972326
1911.75342,-0.1028825343
1910.46777,-0.1029618829
1909.18213,-0.1030314714
1907.89648,-0.1030855700
1906.61084,-0.1031234637
1905.32520,-0.1031516343
1904.03955,-0.1031768993
1902.75391,-0.1032039300
1901.46826,-0.1032370329
1900.18262,-0.1032803506
1898.89697,-0.1033305749
1897.61133,-0.1033701971
1896.32568,-0.1033753902
1895.04004,-0.1033429354
1893.75439,-0.1033043042
1892.46875,-0.1032973155
1891.18311,-0.1033247858
1889.89746,-0.1033566147
1888.61182,-0.1033699661
1887.32617,-0.1033715457
1886.04053,-0.1033772230
1884.75488,-0.1033914611
1883.46924,-0.1034148037
1882.18359,-0.1034540534
1880.89795,-0.1035119742
1879.61230,-0.1035765931
1878.32666,-0.1036321372
1877.04102,-0.1036809087
1875.75537,-0.1037433296
1874.46973,-0.1038360447
1873.18408,-0.1039578989
1871.89844,-0.1040968001
1870.61279,-0.1042395681
1869.32715,-0.1043677852
1868.04150,-0.1044590548
1866.75586,-0.1045089811
1865.47021,-0.1045404077
1864.18457,-0.1045795977
1862.89893,-0.1046255305
1861.61328,-0.1046578512
1860.32764,-0.1046651229
1859.04199,-0.1046534106
1857.75635,-0.1046291217
1856.47070,-0.1045848504
1855.18506,-0.1045081764
1853.89941,-0.1043981537
1852.61377,-0.1042695343
1851.32813,-0.1041371599
1850.04248,-0.1040040255
1848.75684,-0.1038695052
1847.47119,-0.1037411764
1846.18555,-0.1036171317
1844.89990,-0.1034660414
1843.61426,-0.1032484174
1842.32861,-0.1029642373
1841.04297,-0.1026592255
1839.75732,-0.1023797020
1838.47168,-0.1021372974
1837.18604,-0.1019130647
1835.90039,-0.1016864255
1834.61475,-0.1014577448
1833.32910,-0.1012475118
1832.04346,-0.1010677516
1830.75781,-0.1009010002
1829.47217,-0.1007245854
1828.18652,-0.1005432159
1826.90088,-0.1003765389
1825.61523,-0.1002215296
1824.32959,-0.1000598371
1823.04395,-0.0999020785
1821.75830,-0.0997876748
1820.47266,-0.0997341052
1819.18701,-0.0997077599
1817.90137,-0.0996627063
1816.61572,-0.0995962024
1815.33008,-0.0995512456
1814.04443,-0.0995659754
1812.75879,-0.0996346250
1811.47314,-0.0997178033
1810.18750,-0.0997814536
1808.90186,-0.0998172984
1807.61621,-0.0998343676
1806.33057,-0.0998509526
1805.04492,-0.0998876020
1803.75928,-0.0999519750
1802.47363,-0.1000247970
1801.18799,-0.1000746861
1799.90234,-0.1000876278
1798.61670,-0.1000762433
1797.33105,-0.1000644863
1796.04541,-0.1000667438
1794.75977,-0.1000737026
1793.47412,-0.1000518650
1792.18848,-0.0999659523
1790.90283,-0.0998141691
1789.61719,-0.0996344313
1788.33154,-0.0994673297
1787.04590,-0.0993220881
1785.76025,-0.0991807878
1784.47461,-0.0990260914
1783.18896,-0.0988562927
1781.90332,-0.0986761004
1780.61768,-0.0984840468
1779.33203,-0.0982708037
1778.04639,-0.0980290025
1776.76074,-0.0977696925
1775.47510,-0.0975192040
1774.18945,-0.0972908065
1772.90381,-0.0970636830
1771.61816,-0.0968019366
1770.33252,-0.0964929909
1769.04688,-0.0961560160
1767.76123,-0.0958233997
1766.47559,-0.0955297798
1765.18994,-0.0952971205
1763.90430,-0.0951110423
1762.61865,-0.0949256495
1761.33301,-0.0947137699
1760.04736,-0.0944947973
1758.76172,-0.0942985043
1757.47607,-0.0941295102
1756.19043,-0.0939871371
1754.90479,-0.0938857496
1753.61914,-0.0938266516
1752.33350,-0.0937730148
1751.04785,-0.0936769247
1749.76221,-0.0935203359
1748.47656,-0.0933171660
1747.19092,-0.0930868760
1745.90527,-0.0928393155
1744.61963,-0.0925771073
1743.33398,-0.0923033133
1742.04834,-0.0920192823
1740.76270,-0.0917180553
1739.47705,-0.0913995132
1738.19141,-0.0910948366
1736.90576,-0.0908411741
1735.62012,-0.0906212553
1734.33447,-0.0903596804
1733.04883,-0.0900063738
1731.76318,-0.0895869657
1730.47754,-0.0891545787
1729.19189,-0.0887376294
1727.90625,-0.0883545876
1726.62061,-0.0880264938
1725.33496,-0.0877469406
1724.04932,-0.0874798521
1722.76367,-0.0872137472
1721.47803,-0.0869806632
1720.19238,-0.0867986605
1718.90674,-0.0866207406
1717.62109,-0.0863672197
1716.33545,-0.0860045925
1715.04980,-0.0855773762
1713.76416,-0.0851625130
1712.47852,-0.0848046690
1711.19287,-0.0845015496
1709.90723,-0.0842363834
1708.62158,-0.0839965641
1707.33594,-0.0837618336
1706.05029,-0.0835071877
1704.76465,-0.0832401738
1703.47900,-0.0829931572
1702.19336,-0.0827513188
1700.90771,-0.0824277997
1699.62207,-0.0819526836
1698.33643,-0.0813520178
1697.05078,-0.0806798488
1695.76514,-0.0799210593
1694.47949,-0.0790275559
1693.19385,-0.0780073032
1691.90820,-0.0769030750
1690.62256,-0.0757240131
1689.33691,-0.0744688809
1688.05127,-0.0731728226
1686.76563,-0.0718468428
1685.47998,-0.0703936741
1684.19434,-0.0686570704
1682.90869,-0.0665552467
1681.62305,-0.0641232952
1680.33740,-0.0614436008
1679.05176,-0.0585726947
1677.76611,-0.0555060729
1676.48047,-0.0521855764
1675.19482,-0.0485789999
1673.90918,-0.0447605439
1672.62354,-0.0408606231
1671.33789,-0.0369259827
1670.05225,-0.0328998901
1668.76660,-0.0287654847
1667.48096,-0.0246509239
1666.19531,-0.0207278207
1664.90967,-0.0170360133
1663.62402,-0.0134592364
1662.33838,-0.0098628812
1661.05273,-0.0062163365
1659.76709,-0.0025816334
1658.48145,0.0009565036
1657.19580,0.0043365369
1655.91016,0.0075722258
1654.62451,0.0107969334
1653.33887,0.0141712595
1652.05322,0.0176726412
1650.76758,0.0210443698
1649.48193,0.0240159277
1648.19629,0.0264867824
1646.91064,0.0284600109
1645.62500,0.0298793074
1644.33936,0.0305903200
1643.05371,0.0304248407
1641.76807,0.0292682126
1640.48242,0.0270657577
1639.19678,0.0238252599
1637.91113,0.0196458660
1636.62549,0.0147381313
1635.33984,0.0093890643
1634.05420,0.0038682576
1632.76855,-0.0016461231
1631.48291,-0.0070392801
1630.19727,-0.0121793114
1628.91162,-0.0169028789
1627.62598,-0.0210898668
1626.34033,-0.0247289836
1625.05469,-0.0278955940
1623.76904,-0.0306764618
1622.48340,-0.0331307799
1621.19775,-0.0353177525
1619.91211,-0.0373284183
1618.62646,-0.0392491855
1617.34082,-0.0410822816
1616.05518,-0.0427406691
1614.76953,-0.0441452339
1613.48389,-0.0453061908
1612.19824,-0.0462930724
1610.91260,-0.0471537150
1609.62695,-0.0478859507
1608.34131,-0.0484647341
1607.05566,-0.0488769822
1605.77002,-0.0491285697
1604.48438,-0.0492322668
1603.19873,-0.0492015220
1601.91309,-0.0490622669
1600.62744,-0.0488601401
1599.34180,-0.0486472361
1598.05615,-0.0484576970
1596.77051,-0.0482938811
1595.48486,-0.0481314920
1594.19922,-0.0479425639
1592.91357,-0.0477215461
1591.62793,-0.0474915169
1590.34229,-0.0472782142
1589.05664,-0.0470840447
1587.77100,-0.0468818769
1586.48535,-0.0466330759
1585.19971,-0.0463155918
1583.91406,-0.0459382609
1582.62842,-0.0455307253
1581.34277,-0.0451212153
1580.05713,-0.0447228588
1578.77148,-0.0443186127
1577.48584,-0.0438470803
1576.20020,-0.0432318300
1574.91455,-0.0424637571
1573.62891,-0.0416420251
1572.34326,-0.0408963896
1571.05762,-0.0402782187
1569.77197,-0.0397367962
1568.48633,-0.0391943604
1567.20068,-0.0386295617
1565.91504,-0.0380883068
1564.62939,-0.0376391001
1563.34375,-0.0373295583
1562.05811,-0.0371615365
1560.77246,-0.0370713733
1559.48682,-0.0369452946
1558.20117,-0.0367064252
1556.91553,-0.0364066400
1555.62988,-0.0361845382
1554.34424,-0.0361340418
1553.05859,-0.0362440273
1551.77295,-0.0364472978
1550.48730,-0.0366859697
1549.20166,-0.0369348302
1547.91602,-0.0372019857
1546.63037,-0.0375157930
1545.34473,-0.0378985666
1544.05908,-0.0383466966
1542.77344,-0.0388239548
1541.48779,-0.0392584130
1540.20215,-0.0395727307
1538.91650,-0.0397618301
1537.63086,-0.0399243645
1536.34521,-0.0401700512
1535.05957,-0.0405053571
1533.77393,-0.0408449322
1532.48828,-0.0411248058
1531.20264,-0.0413746201
1529.91699,-0.0416748524
1528.63135,-0.0420735702
1527.34570,-0.0425577872
1526.06006,-0.0430852063
1524.77441,-0.0436173677
1523.48877,-0.0441168919
1522.20313,-0.0445492603
1520.91748,-0.0449188799
1519.63184,-0.0452795103
1518.34619,-0.0456717201
1517.06055,-0.0460723266
1515.77490,-0.0464354046
1514.48926,-0.0467572622
1513.20361,-0.0470657796
1511.91797,-0.0473664254
1510.63232,-0.0476348512
1509.34668,-0.0478462614
1508.06104,-0.0479775183
1506.77539,-0.0480027348
1505.48975,-0.0479224883
1504.20410,-0.0477820821
1502.91846,-0.0476297475
1501.63281,-0.0474664085
1500.34717,-0.0472613573
1499.06152,-0.0469991639
1497.77588,-0.0466826446
1496.49023,-0.0463013984
1495.20459,-0.0458352230
1493.91895,-0.0452880934
1492.63330,-0.0446767509
1491.34766,-0.0439757109
1490.06201,-0.0431045219
1488.77637,-0.0419866778
1487.49072,-0.0406028777
1486.20508,-0.0389762372
1484.91943,-0.0371250808
1483.63379,-0.0350380614
1482.34814,-0.0326882303
1481.06250,-0.0300763603
1479.77686,-0.0272976607
1478.49121,-0.0245976001
1477.20557,-0.0223378334
1475.91992,-0.0208024457
1474.63428,-0.0199504625
1473.34863,-0.0194023866
1472.06299,-0.0187820792
1470.77734,-0.0180723500
1469.49170,-0.0175522249
1468.20605,-0.0174339227
1466.92041,-0.0176728331
1465.63477,-0.0180576984
1464.34912,-0.0183303617
1463.06348,-0.0182450339
1461.77783,-0.0176930632
1460.49219,-0.0168235451
1459.20654,-0.0159533340
1457.92090,-0.0153206801
1456.63525,-0.0149611933
1455.34961,-0.0148079600
1454.06396,-0.0148387309
1452.77832,-0.0150915748
1451.49268,-0.0155979656
1450.20703,-0.0163346361
1448.92139,-0.0172234438
1447.63574,-0.0181689300
1446.35010,-0.0191025492
1445.06445,-0.0200000536
1443.77881,-0.0208728611
1442.49316,-0.0217743535
1441.20752,-0.0228138492
1439.92188,-0.0241284389
1438.63623,-0.0258108154
1437.35059,-0.0278634466
1436.06494,-0.0302215032
1434.77930,-0.0328182913
1433.49365,-0.0356157534
1432.20801,-0.0385711081
1430.92236,-0.0415927246
1429.63672,-0.0445578098
1428.35107,-0.0473717675
1427.06543,-0.0499941818
1425.77979,-0.0524074584
1424.49414,-0.0545897484
1423.20850,-0.0565340184
1421.92285,-0.0582593419
1420.63721,-0.0597828887
1419.35156,-0.0610994361
1418.06592,-0.0622203164
1416.78027,-0.0632082522
1415.49463,-0.0641393811
1414.20898,-0.0650341362
1412.92334,-0.0658477023
1411.63770,-0.0665266439
1410.35205,-0.0670611188
1409.06641,-0.0674831197
1407.78076,-0.0678194314
1406.49512,-0.0680570677
1405.20947,-0.0681682304
1403.92383,-0.0681631416
1402.63818,-0.0680946037
1401.35254,-0.0680131540
1400.06689,-0.0679501519
1398.78125,-0.0679417849
1397.49561,-0.0680277497
1396.20996,-0.0682056621
1394.92432,-0.0684106201
1393.63867,-0.0685576871
1392.35303,-0.0685991570
1391.06738,-0.0685348809
1389.78174,-0.0683759451
1388.49609,-0.0681118518
1387.21045,-0.0677265972
1385.92480,-0.0672523379
1384.63916,-0.0668003112
1383.35352,-0.0665192232
1382.06787,-0.0665108263
1380.78223,-0.0667662174
1379.49658,-0.0671587884
1378.21094,-0.0674910620
1376.92529,-0.0675763264
1375.63965,-0.0673110411
1374.35400,-0.0667041019
1373.06836,-0.0658623725
1371.78271,-0.0649417266
1370.49707,-0.0640875101
1369.21143,-0.0633965582
1367.92578,-0.0629160553
1366.64014,-0.0626504645
1365.35449,-0.0625606775
1364.06885,-0.0625825971
1362.78320,-0.0626710728
1361.49756,-0.0628268197
1360.21191,-0.0630726963
1358.92627,-0.0634127185
1357.64063,-0.0638212040
1356.35498,-0.0642575845
1355.06934,-0.0646904334
1353.78369,-0.0651123077
1352.49805,-0.0655320287
1351.21240,-0.0659492984
1349.92676,-0.0663446561
1348.64111,-0.0667012185
1347.35547,-0.0670254827
1346.06982,-0.0673369765
1344.78418,-0.0676487759
1343.49854,-0.0679615289
1342.21289,-0.0682661086
1340.92725,-0.0685459301
1339.64160,-0.0687852353
1338.35596,-0.0689793080
1337.07031,-0.0691368654
1335.78467,-0.0692697093
1334.49902,-0.0693803504
1333.21338,-0.0694572553
1331.92773,-0.0694826692
1330.64209,-0.0694471598
1329.35645,-0.0693584606
1328.07080,-0.0692350119
1326.78516,-0.0690875053
1325.49951,-0.0689031482
1324.21387,-0.0686527863
1322.92822,-0.0683171526
1321.64258,-0.0679049939
1320.35693,-0.0674361885
1319.07129,-0.0669158027
1317.78564,-0.0663348436
1316.50000,-0.0656967238
1315.21436,-0.0650223270
1313.92871,-0.0643239692
1312.64307,-0.0635802671
1311.35742,-0.0627411976
1310.07178,-0.0617631637
1308.78613,-0.0606445670
1307.50049,-0.0594245866
1306.21484,-0.0581353158
1304.92920,-0.0567608178
1303.64355,-0.0552567318
1302.35791,-0.0536070615
1301.07227,-0.0518424995
1299.78662,-0.0500054434
1298.50098,-0.0481164753
1297.21533,-0.0461752228
1295.92969,-0.0441742279
1294.64404,-0.0421025194
1293.35840,-0.0399466045
1292.07275,-0.0376951173
1290.78711,-0.0353362225
1289.50146,-0.0328473821
1288.21582,-0.0301838815
1286.93018,-0.0272852164
1285.64453,-0.0240961146
1284.35889,-0.0205867775
1283.07324,-0.0167542621
1281.78760,-0.0126037234
1280.50195,-0.0081275636
1279.21631,-0.0032890108
1277.93066,0.0019797343
1276.64502,0.0077567599
1275.35938,0.0141047500
1274.07373,0.0210820567
1272.78809,0.0287845340
1271.50244,0.0373550728
1270.21680,0.0469367057
1268.93115,0.0576501824
1267.64551,0.0696343333
1266.35986,0.0830762312
1265.07422,0.0981738791
1263.78857,0.1151520386
1262.50293,0.1343894899
1261.21729,0.1564925313
1259.93164,0.1820750237
1258.64600,0.2114416361
1257.36035,0.2445804477
1256.07471,0.2815954387
1254.78906,0.3231311142
1253.50342,0.3702962995
1252.21777,0.4241057038
1250.93213,0.4849478602
1249.64648,0.5526725650
1248.36084,0.6270123124
1247.07520,0.7078503966
1245.78955,0.7945942283
1244.50391,0.8861725926
1243.21826,0.9815494418
1241.93262,1.0807813406
1240.64697,1.1819157600
1239.36133,1.2791147232
1238.07568,1.3630979061
1236.79004,1.4298899174
1235.50439,1.4798321724
1234.21875,1.5148881674
1232.93311,1.5342015028
1231.64746,1.5384337902
1230.36182,1.5290848017
1229.07617,1.5109575987
1227.79053,1.4914119244
1226.50488,1.4722664356
1225.21924,1.4552637339
1223.93359,1.4408655167
1222.64795,1.4294213057
1221.36230,1.4216899872
1220.07666,1.4200116396
1218.79102,1.4264065027
1217.50537,1.4405235052
1216.21973,1.4559419155
1214.93408,1.4666117430
1213.64844,1.4714719057
1212.36279,1.4769610167
1211.07715,1.4870672226
1209.79150,1.5046906471
1208.50586,1.5299451351
1207.22021,1.5619014502
1205.93457,1.5946669579
1204.64893,1.6227302551
1203.36328,1.6425888538
1202.07764,1.6567691565
1200.79199,1.6696447134
1199.50635,1.6819596291
1198.22070,1.6894489527
1196.93506,1.7033509016
1195.64941,1.7152702808
1194.36377,1.7253623009
1193.07813,1.7318991423
1191.79248,1.7562119961
1190.50684,1.7719634771
1189.22119,1.7801362276
1187.93555,1.7777590752
1186.64990,1.7554035187
1185.36426,1.7043780088
1184.07861,1.6275545359
1182.79297,1.5348395109
1181.50732,1.4280960560
1180.22168,1.3230440617
1178.93604,1.2225136757
1177.65039,1.1286147833
1176.36475,1.0412930250
1175.07910,0.9613491893
1173.79346,0.8882951140
1172.50781,0.8219209313
1171.22217,0.7618128657
1169.93652,0.7072845101
1168.65088,0.6574540734
1167.36523,0.6117571592
1166.07959,0.5699968934
1164.79395,0.5320919156
1163.50830,0.4977606237
1162.22266,0.4664729834
1160.93701,0.4376602471
1159.65137,0.4109867513
1158.36572,0.3863925636
1157.08008,0.3638643622
1155.79443,0.3431923091
1154.50879,0.3239901960
1153.22314,0.3059772849
1151.93750,0.2891974151
1150.65186,0.2738920450
1149.36621,0.2601464391
1148.08057,0.2477072924
1146.79492,0.2361748517
1145.50928,0.2253255099
1144.22363,0.2151866108
1142.93799,0.2058164924
1141.65234,0.1971320957
1140.36670,0.1890039444
1139.08105,0.1814315170
1137.79541,0.1745132804
1136.50977,0.1682312042
1135.22412,0.1623823196
1133.93848,0.1567761302
1132.65283,0.1514243484
1131.36719,0.1464312822
1130.08154,0.1417566091
1128.79590,0.1372163892
1127.51025,0.1327322870
1126.22461,0.1284565628
1124.93896,0.1245858669
1123.65332,0.1211329401
1122.36768,0.1179446802
1121.08203,0.1149047613
1119.79639,0.1120372191
1118.51074,0.1094110236
1117.22510,0.1070005447
1115.93945,0.1046763957
1114.65381,0.1023176834
1113.36816,0.0999039561
1112.08252,0.0974979848
1110.79688,0.0951745957
1109.51123,0.0929795504
1108.22559,0.0909235179
1106.93994,0.0889735594
1105.65430,0.0870632082
1104.36865,0.0851548091
1103.08301,0.0832911953
1101.79736,0.0815593973
1100.51172,0.0799981430
1099.22607,0.0785575807
1097.94043,0.0771500990
1096.65479,0.0757119432
1095.36914,0.0742167756
1094.08350,0.0726734772
1092.79785,0.0711352751
1091.51221,0.0696852580
1090.22656,0.0683703721
1088.94092,0.0671456307
1087.65527,0.0659092218
1086.36963,0.0645931065
1085.08398,0.0632053688
1083.79834,0.0617857166
1082.51270,0.0603449643
1081.22705,0.0588586740
1079.94141,0.0573106036
1078.65576,0.0557319745
1077.37012,0.0541962758
1076.08447,0.0527667329
1074.79883,0.0514504164
1073.51318,0.0502158143
1072.22754,0.0490532368
1070.94189,0.0479828306
1069.65625,0.0469871871
1068.37061,0.0459711142
1067.08496,0.0448400080
1065.79932,0.0436152630
1064.51367,0.0424332097
1063.22803,0.0414158218
1061.94238,0.0405613258
1060.65674,0.0397683941
1059.37109,0.0389521532
1058.08545,0.0381179713
1056.79980,0.0373375826
1055.51416,0.0366684198
1054.22852,0.0361103788
1052.94287,0.0356245004
1051.65723,0.0351787992
1050.37158,0.0347649641
1049.08594,0.0343818665
1047.80029,0.0340235680
1046.51465,0.0336836167
1045.22900,0.0333603583
1043.94336,0.0330629312
1042.65771,0.0328267626
1041.37207,0.0327155478
1040.08643,0.0327651538
1038.80078,0.0329112560
1037.51514,0.0330218747
1036.22949,0.0330374353
1034.94385,0.0330452248
1033.65820,0.0331644863
1032.37256,0.0333942696
1031.08691,0.0336435847
1029.80127,0.0338896066
1028.51563,0.0342101716
1027.22998,0.0346444808
1025.94434,0.0351083502
1024.65869,0.0354891121
1023.37305,0.0357614756
1022.08740,0.0359731503
1020.80176,0.0361617170
1019.51611,0.0363259614
1018.23047,0.0364459902
1016.94482,0.0365106314
1015.65918,0.0365365073
1014.37354,0.0365685821
1013.08789,0.0366418324
1011.80225,0.0367486700
1010.51660,0.0368564725
1009.23096,0.0369365625
1007.94531,0.0369579829
1006.65967,0.0368815213
1005.37402,0.0366956592
1004.08838,0.0364360511
1002.80273,0.0361445248
1001.51709,0.0358235985
1000.23145,0.0354493968
998.94580,0.0350076891
997.66016,0.0344945155
996.37451,0.0338997096
995.08887,0.0332132168
993.80322,0.0324445069
992.51758,0.0316247828
991.23193,0.0307972357
989.94629,0.0300069600
988.66064,0.0292830560
987.37500,0.0286166407
986.08936,0.0279694181
984.80371,0.0273236502
983.51807,0.0267168880
982.23242,0.0262100268
980.94678,0.0258198362
979.66113,0.0254972745
978.37549,0.0251731165
977.08984,0.0248151273
975.80420,0.0244457945
974.51855,0.0241191611
973.23291,0.0238807201
971.94727,0.0237349719
970.66162,0.0236503631
969.37598,0.0236014109
968.09033,0.0235981606
966.80469,0.0236648247
965.51904,0.0237978045
964.23340,0.0239578243
962.94775,0.0241075065
961.66211,0.0242527202
960.37646,0.0244445913
959.09082,0.0247256216
957.80518,0.0250682887
956.51953,0.0253889952
955.23389,0.0256441645
953.94824,0.0258915704
952.66260,0.0262292475
951.37695,0.0266903229
950.09131,0.0272301566
948.80566,0.0277934242
947.52002,0.0283576194
946.23438,0.0289157443
944.94873,0.0294602904
943.66309,0.0299896561
942.37744,0.0305078346
941.09180,0.0310195163
939.80615,0.0315473638
938.52051,0.0321339332
937.23486,0.0327969454
935.94922,0.0334843472
934.66357,0.0341038704
933.37793,0.0345966853
932.09229,0.0349688046
930.80664,0.0352737457
929.52100,0.0355882570
928.23535,0.0359706208
926.94971,0.0364050306
925.66406,0.0368073061
924.37842,0.0371117629
923.09277,0.0373271145
921.80713,0.0374808498
920.52148,0.0375586078
919.23584,0.0375466123
917.95020,0.0374959521
916.66455,0.0374788791
915.37891,0.0374966301
914.09326,0.0374842100
912.80762,0.0374021567
911.52197,0.0372734331
910.23633,0.0371267870
908.95068,0.0369520672
907.66504,0.0367261656
906.37939,0.0364527442
905.09375,0.0361607634
903.80811,0.0358785354
902.52246,0.0356214643
901.23682,0.0353897698
899.95117,0.0351634733
