3999.64014,0.0102647832
3998.35449,0.0100073349
3997.06885,0.0095606102
3995.78320,0.0091966186
3994.49756,0.0089311628
3993.21191,0.0086131357
3991.92627,0.0082119470
3990.64063,0.0078842193
3989.35498,0.0078119715
3988.06934,0.0080330735
3986.78369,0.0084165726
3985.49805,0.0087595731
3984.21240,0.0089156507
3982.92676,0.0088640507
3981.64111,0.0086868368
3980.35547,0.0085119661
3979.06982,0.0084803412
3977.78418,0.0086857276
3976.49854,0.0090809846
3975.21289,0.0094682155
3973.92725,0.0096499827
3972.64160,0.0095854597
3971.35596,0.0093832444
3970.07031,0.0091904840
3968.78467,0.0091314744
3967.49902,0.0092689898
3966.21338,0.0095282486
3964.92773,0.0097222971
3963.64209,0.0097258184
3962.35645,0.0096116066
3961.07080,0.0095735500
3959.78516,0.0097248396
3958.49951,0.0100014815
3957.21387,0.0102348607
3955.92822,0.0102435797
3954.64258,0.0099026617
3953.35693,0.0092460625
3952.07129,0.0085408995
3950.78564,0.0081826653
3949.50000,0.0083962251
3948.21436,0.0089586973
3946.92871,0.0093196342
3945.64307,0.0091571175
3944.35742,0.0086819241
3943.07178,0.0083193798
3941.78613,0.0082431026
3940.50049,0.0082953954
3939.21484,0.0083184559
3937.92920,0.0083453450
3936.64355,0.0084257051
3935.35791,0.0085180113
3934.07227,0.0086230636
3932.78662,0.0088393223
3931.50098,0.0091714999
3930.21533,0.0094144326
3928.92969,0.0094124740
3927.64404,0.0093035549
3926.35840,0.0093598366
3925.07275,0.0097213984
3923.78711,0.0102738487
3922.50146,0.0107073784
3921.21582,0.0108146612
3919.93018,0.0107095810
3918.64453,0.0106571028
3917.35889,0.0107397754
3916.07324,0.0107757309
3914.78760,0.0106120594
3913.50195,0.0103126541
3912.21631,0.0099820662
3910.93066,0.0096476525
3909.64502,0.0093705747
3908.35938,0.0093049817
3907.07373,0.0095715392
3905.78809,0.0101097031
3904.50244,0.0106710847
3903.21680,0.0110068964
3901.93115,0.0112050874
3900.64551,0.0115791438
3899.35986,0.0120323412
3898.07422,0.0120355617
3896.78857,0.0114159659
3895.50293,0.0106172320
3894.21729,0.0101329675
3892.93164,0.0101152146
3891.64600,0.0103961891
3890.36035,0.0106522478
3889.07471,0.0106895491
3887.78906,0.0106214760
3886.50342,0.0106829703
3885.21777,0.0109786224
3883.93213,0.0113568660
3882.64648,0.0115731889
3881.36084,0.0115664080
3880.07520,0.0113931382
3878.78955,0.0111035248
3877.50391,0.0108220652
3876.21826,0.0107366173
3874.93262,0.0109453835
3873.64697,0.0113763697
3872.36133,0.0118430573
3871.07568,0.0122009432
3869.79004,0.0123684360
3868.50439,0.0122389086
3867.21875,0.0118257925
3865.93311,0.0114126178
3864.64746,0.0113294711
3863.36182,0.0116101159
3862.07617,0.0118124392
3860.79053,0.0114951944
3859.50488,0.0108242426
3858.21924,0.0103470627
3856.93359,0.0104654729
3855.64795,0.0112535134
3854.36230,0.0124781020
3853.07666,0.0134556284
3851.79102,0.0132385269
3850.50537,0.0120090293
3849.21973,0.0107406247
3847.93408,0.0098250480
3846.64844,0.0092846714
3845.36279,0.0091282222
3844.07715,0.0094086388
3842.79150,0.0101431943
3841.50586,0.0111602256
3840.22021,0.0120886061
3838.93457,0.0126283802
3837.64893,0.0128049171
3836.36328,0.0128333392
3835.07764,0.0127117755
3833.79199,0.0122675328
3832.50635,0.0115027688
3831.22070,0.0106273117
3829.93506,0.0098690828
3828.64941,0.0093505513
3827.36377,0.0091132876
3826.07813,0.0091287252
3824.79248,0.0092714755
3823.50684,0.0094234534
3822.22119,0.0096370662
3820.93555,0.0100835795
3819.64990,0.0107610039
3818.36426,0.0113970703
3817.07861,0.0117767435
3815.79297,0.0117602274
3814.50732,0.0111921262
3813.22168,0.0102034016
3811.93604,0.0092225820
3810.65039,0.0085787056
3809.36475,0.0083896797
3808.07910,0.0086361608
3806.79346,0.0091579370
3805.50781,0.0096682189
3804.22217,0.0100058261
3802.93652,0.0102842646
3801.65088,0.0106286118
3800.36523,0.0108759701
3799.07959,0.0106954928
3797.79395,0.0100600272
3796.50830,0.0092373369
3795.22266,0.0085289665
3793.93701,0.0081265364
3792.65137,0.0080005089
3791.36572,0.0079526026
3790.08008,0.0077965013
3788.79443,0.0075232871
3787.50879,0.0073732631
3786.22314,0.0076568425
3784.93750,0.0083980449
3783.65186,0.0092220530
3782.36621,0.0097722011
3781.08057,0.0101035554
3779.79492,0.0104029495
3778.50928,0.0105183255
3777.22363,0.0101008005
3775.93799,0.0092159184
3774.65234,0.0083480366
3773.36670,0.0078975568
3772.08105,0.0079756975
3770.79541,0.0084761186
3769.50977,0.0091562187
3768.22412,0.0097273281
3766.93848,0.0100387000
3765.65283,0.0101398826
3764.36719,0.0101413401
3763.08154,0.0101084048
3761.79590,0.0100504104
3760.51025,0.0099567445
3759.22461,0.0098749893
3757.93896,0.0099381506
3756.65332,0.0102201244
3755.36768,0.0106267286
3754.08203,0.0110830758
3752.79639,0.0116886888
3751.51074,0.0125621343
3750.22510,0.0133870393
3748.93945,0.0134191578
3747.65381,0.0126219839
3746.36816,0.0117337909
3745.08252,0.0113605596
3743.79688,0.0117245624
3742.51123,0.0124539658
3741.22559,0.0128565617
3739.93994,0.0127362711
3738.65430,0.0123994388
3737.36865,0.0123501401
3736.08301,0.0130225215
3734.79736,0.0142368684
3733.51172,0.0149746062
3732.22607,0.0146145355
3730.94043,0.0137217538
3729.65479,0.0129969418
3728.36914,0.0126698222
3727.08350,0.0127154011
3725.79785,0.0129983565
3724.51221,0.0132729560
3723.22656,0.0133351199
3721.94092,0.0131934555
3720.65527,0.0129187731
3719.36963,0.0124355052
3718.08398,0.0116605293
3716.79834,0.0107457452
3715.51270,0.0100442898
3714.22705,0.0098911691
3712.94141,0.0104440479
3711.65576,0.0115257362
3710.37012,0.0124623841
3709.08447,0.0125748711
3707.79883,0.0120420558
3706.51318,0.0114707407
3705.22754,0.0111886198
3703.94189,0.0112199895
3702.65625,0.0113883018
3701.37061,0.0114012165
3700.08496,0.0111027546
3698.79932,0.0106797600
3697.51367,0.0104056802
3696.22803,0.0103457374
3694.94238,0.0104201306
3693.65674,0.0106111579
3692.37109,0.0110542653
3691.08545,0.0119086606
3689.79980,0.0129970489
3688.51416,0.0135416407
3687.22852,0.0129364263
3685.94287,0.0117165837
3684.65723,0.0106670521
3683.37158,0.0100259585
3682.08594,0.0097548058
3680.80029,0.0098233810
3679.51465,0.0102121206
3678.22900,0.0108647412
3676.94336,0.0117228348
3675.65771,0.0126403729
3674.37207,0.0132302819
3673.08643,0.0133516435
3671.80078,0.0134715149
3670.51514,0.0138228359
3669.22949,0.0138763404
3667.94385,0.0129870195
3666.65820,0.0115725501
3665.37256,0.0105499392
3664.08691,0.0102305133
3662.80127,0.0103751374
3661.51563,0.0105933845
3660.22998,0.0106790699
3658.94434,0.0107462760
3657.65869,0.0110541061
3656.37305,0.0116973044
3655.08740,0.0124657415
3653.80176,0.0131418509
3652.51611,0.0138669321
3651.23047,0.0149602974
3649.94482,0.0164893959
3648.65918,0.0178672075
3647.37354,0.0181862563
3646.08789,0.0176639333
3644.80225,0.0171535742
3643.51660,0.0169122778
3642.23096,0.0168688130
3640.94531,0.0169820152
3639.65967,0.0172431208
3638.37402,0.0175555628
3637.08838,0.0177429616
3635.80273,0.0177672300
3634.51709,0.0179125518
3633.23145,0.0186324082
3631.94580,0.0201364178
3630.66016,0.0221685637
3629.37451,0.0240662694
3628.08887,0.0249439366
3626.80322,0.0246278327
3625.51758,0.0241002552
3624.23193,0.0239316486
3622.94629,0.0238510463
3621.66064,0.0234819334
3620.37500,0.0228237826
3619.08936,0.0224059597
3617.80371,0.0229337737
3616.51807,0.0244475771
3615.23242,0.0261752754
3613.94678,0.0272321664
3612.66113,0.0271140561
3611.37549,0.0261311475
3610.08984,0.0253563356
3608.80420,0.0255948473
3607.51855,0.0265932195
3606.23291,0.0274564903
3604.94727,0.0278147589
3603.66162,0.0281335507
3602.37598,0.0290115438
3601.09033,0.0306590963
3599.80469,0.0326730721
3598.51904,0.0341076516
3597.23340,0.0342305079
3595.94775,0.0333207771
3594.66211,0.0324903615
3593.37646,0.0326074660
3592.09082,0.0334161036
3590.80518,0.0339980684
3589.51953,0.0337268338
3588.23389,0.0324828885
3586.94824,0.0307092946
3585.66260,0.0295092706
3584.37695,0.0296236854
3583.09131,0.0305892620
3581.80566,0.0314995125
3580.52002,0.0317376927
3579.23438,0.0312038306
3577.94873,0.0304027628
3576.66309,0.0301240329
3575.37744,0.0306496769
3574.09180,0.0312725678
3572.80615,0.0309772305
3571.52051,0.0296387579
3570.23486,0.0282333475
3568.94922,0.0279172435
3567.66357,0.0290699098
3566.37793,0.0307653900
3565.09229,0.0313693881
3563.80664,0.0305387415
3562.52100,0.0294056349
3561.23535,0.0288724452
3559.94971,0.0289751776
3558.66406,0.0292086266
3557.37842,0.0290082172
3556.09277,0.0281733796
3554.80713,0.0270523671
3553.52148,0.0263942350
3552.23584,0.0267152656
3550.95020,0.0275521614
3549.66455,0.0278216861
3548.37891,0.0272491183
3547.09326,0.0267837606
3545.80762,0.0273636784
3544.52197,0.0285532195
3543.23633,0.0289347246
3541.95068,0.0279952604
3540.66504,0.0266265217
3539.37939,0.0258985236
3538.09375,0.0260877144
3536.80811,0.0267457105
3535.52246,0.0272577982
3534.23682,0.0273016021
3532.95117,0.0269969963
3531.66553,0.0267900918
3530.37988,0.0270272419
3529.09424,0.0274631064
3527.80859,0.0272441022
3526.52295,0.0258883294
3525.23730,0.0242310148
3523.95166,0.0236907396
3522.66602,0.0245147552
3521.38037,0.0254255794
3520.09473,0.0252430961
3518.80908,0.0242349822
3517.52344,0.0235058423
3516.23779,0.0235916805
3514.95215,0.0240127277
3513.66650,0.0239318125
3512.38086,0.0229245517
3511.09521,0.0211255103
3509.80957,0.0190276857
3508.52393,0.0172627550
3507.23828,0.0163480695
3505.95264,0.0164759774
3504.66699,0.0175330043
3503.38135,0.0191434547
3502.09570,0.0206661224
3500.81006,0.0214451682
3499.52441,0.0212803073
3498.23877,0.0204648953
3496.95313,0.0193925425
3495.66748,0.0183408726
3494.38184,0.0174701307
3493.09619,0.0167155005
3491.81055,0.0157036409
3490.52490,0.0141571919
3489.23926,0.0125741251
3487.95361,0.0120440777
3486.66797,0.0128502687
3485.38232,0.0136455121
3484.09668,0.0128226737
3482.81104,0.0104042217
3481.52539,0.0078810556
3480.23975,0.0062409262
3478.95410,0.0051216446
3477.66846,0.0041715624
3476.38281,0.0041349996
3475.09717,0.0057853595
3473.81152,0.0084863603
3472.52588,0.0104133431
3471.24023,0.0102662668
3469.95459,0.0084959157
3468.66895,0.0066834334
3467.38330,0.0059096171
3466.09766,0.0059392964
3464.81201,0.0059805517
3463.52637,0.0059470381
3462.24072,0.0063170362
3460.95508,0.0067812600
3459.66943,0.0060033589
3458.38379,0.0033871515
3457.09814,0.0002776122
3455.81250,-0.0012899475
3454.52686,-0.0007043034
3453.24121,0.0007509019
3451.95557,0.0011921563
3450.66992,-0.0004568024
3449.38428,-0.0037174739
3448.09863,-0.0067752828
3446.81299,-0.0080018369
3445.52734,-0.0077109085
3444.24170,-0.0077990410
3442.95605,-0.0093246214
3441.67041,-0.0113051804
3440.38477,-0.0121658705
3439.09912,-0.0114569329
3437.81348,-0.0101681510
3436.52783,-0.0098275030
3435.24219,-0.0113713043
3433.95654,-0.0141337961
3432.67090,-0.0158019438
3431.38525,-0.0144212563
3430.09961,-0.0100554582
3428.81396,-0.0048638158
3427.52832,-0.0019032568
3426.24268,-0.0033015988
3424.95703,-0.0083565144
3423.67139,-0.0134753985
3422.38574,-0.0148039069
3421.10010,-0.0108667733
3419.81445,-0.0033838504
3418.52881,0.0034369573
3417.24316,0.0048503955
3415.95752,-0.0015185052
3414.67188,-0.0128027815
3413.38623,-0.0220598020
3412.10059,-0.0239335261
3410.81494,-0.0191954840
3409.52930,-0.0132371802
3408.24365,-0.0107329972
3406.95801,-0.0120927179
3405.67236,-0.0146484636
3404.38672,-0.0165147483
3403.10107,-0.0189207345
3401.81543,-0.0239204448
3400.52979,-0.0304777604
3399.24414,-0.0350374468
3397.95850,-0.0358594172
3396.67285,-0.0338810906
3395.38721,-0.0293426719
3394.10156,-0.0212481990
3392.81592,-0.0116874110
3391.53027,-0.0062302696
3390.24463,-0.0082053505
3388.95898,-0.0152558535
3387.67334,-0.0231325831
3386.38770,-0.0303590652
3385.10205,-0.0368468016
3383.81641,-0.0401401706
3382.53076,-0.0369309261
3381.24512,-0.0280664079
3379.95947,-0.0190751012
3378.67383,-0.0156118004
3377.38818,-0.0190621670
3376.10254,-0.0258422773
3374.81689,-0.0306600574
3373.53125,-0.0307211801
3372.24561,-0.0277558379
3370.95996,-0.0263022371
3369.67432,-0.0296874084
3368.38867,-0.0376787409
3367.10303,-0.0471031331
3365.81738,-0.0537117012
3364.53174,-0.0543745570
3363.24609,-0.0493435562
3361.96045,-0.0425707884
3360.67480,-0.0383805856
3359.38916,-0.0381366797
3358.10352,-0.0403079428
3356.81787,-0.0433610678
3355.53223,-0.0466904528
3354.24658,-0.0497546457
3352.96094,-0.0518146493
3351.67529,-0.0529812574
3350.38965,-0.0539106242
3349.10400,-0.0541459210
3347.81836,-0.0516748540
3346.53271,-0.0450048707
3345.24707,-0.0357328318
3343.96143,-0.0287030190
3342.67578,-0.0283290800
3341.39014,-0.0343232416
3340.10449,-0.0414070487
3338.81885,-0.0441605747
3337.53320,-0.0419693403
3336.24756,-0.0384248458
3334.96191,-0.0371973217
3333.67627,-0.0392594449
3332.39063,-0.0431890860
3331.10498,-0.0470966287
3329.81934,-0.0498711094
3328.53369,-0.0512711443
3327.24805,-0.0508801378
3325.96240,-0.0478857197
3324.67676,-0.0422090292
3323.39111,-0.0358425379
3322.10547,-0.0312378667
3320.81982,-0.0294951200
3319.53418,-0.0311640501
3318.24854,-0.0371112525
3316.96289,-0.0464578681
3315.67725,-0.0549994670
3314.39160,-0.0583214052
3313.10596,-0.0561328493
3311.82031,-0.0520307384
3310.53467,-0.0490833484
3309.24902,-0.0473242253
3307.96338,-0.0459026769
3306.67773,-0.0453854315
3305.39209,-0.0471303947
3304.10645,-0.0514736697
3302.82080,-0.0573528484
3301.53516,-0.0631957203
3300.24951,-0.0673967749
3298.96387,-0.0686599016
3297.67822,-0.0673405603
3296.39258,-0.0655144900
3295.10693,-0.0649362430
3293.82129,-0.0651081651
3292.53564,-0.0649435073
3291.25000,-0.0643743277
3289.96436,-0.0637715459
3288.67871,-0.0631184131
3287.39307,-0.0623851009
3286.10742,-0.0619494021
3284.82178,-0.0614481978
3283.53613,-0.0594899543
3282.25049,-0.0554610975
3280.96484,-0.0506567024
3279.67920,-0.0469741635
3278.39355,-0.0458701588
3277.10791,-0.0487369262
3275.82227,-0.0558988489
3274.53662,-0.0645102337
3273.25098,-0.0699375942
3271.96533,-0.0704978704
3270.67969,-0.0688775778
3269.39404,-0.0677937865
3268.10840,-0.0666358992
3266.82275,-0.0640462860
3265.53711,-0.0608914606
3264.25146,-0.0584969036
3262.96582,-0.0564636476
3261.68018,-0.0546952933
3260.39453,-0.0551191829
3259.10889,-0.0589546598
3257.82324,-0.0644670799
3256.53760,-0.0692069009
3255.25195,-0.0727064759
3253.96631,-0.0754313320
3252.68066,-0.0772173926
3251.39502,-0.0782357007
3250.10938,-0.0788339898
3248.82373,-0.0779059753
3247.53809,-0.0742803290
3246.25244,-0.0697983056
3244.96680,-0.0685605630
3243.68115,-0.0727319270
3242.39551,-0.0805479959
3241.10986,-0.0882174000
3239.82422,-0.0923172906
3238.53857,-0.0910125971
3237.25293,-0.0851047263
3235.96729,-0.0780211911
3234.68164,-0.0733462349
3233.39600,-0.0729487091
3232.11035,-0.0767562389
3230.82471,-0.0826921836
3229.53906,-0.0872619078
3228.25342,-0.0881370679
3226.96777,-0.0860348269
3225.68213,-0.0831988007
3224.39648,-0.0807935447
3223.11084,-0.0783258453
3221.82520,-0.0749599040
3220.53955,-0.0709865913
3219.25391,-0.0680933073
3217.96826,-0.0677845031
3216.68262,-0.0697489232
3215.39697,-0.0724492222
3214.11133,-0.0746309981
3212.82568,-0.0750882775
3211.54004,-0.0722394586
3210.25439,-0.0658117086
3208.96875,-0.0584842339
3207.68311,-0.0540073738
3206.39746,-0.0540639237
3205.11182,-0.0579332970
3203.82617,-0.0641118661
3202.54053,-0.0709730089
3201.25488,-0.0766180381
3199.96924,-0.0793596730
3198.68359,-0.0786692426
3197.39795,-0.0756373405
3196.11230,-0.0725899786
3194.82666,-0.0715765134
3193.54102,-0.0726138130
3192.25537,-0.0737256631
3190.96973,-0.0730839372
3189.68408,-0.0706995800
3188.39844,-0.0677993745
3187.11279,-0.0651030466
3185.82715,-0.0625277236
3184.54150,-0.0602092817
3183.25586,-0.0588254258
3181.97021,-0.0586360246
3180.68457,-0.0588782690
3179.39893,-0.0585360900
3178.11328,-0.0574553646
3176.82764,-0.0565389246
3175.54199,-0.0569541603
3174.25635,-0.0590751059
3172.97070,-0.0619817711
3171.68506,-0.0640441850
3170.39941,-0.0641026571
3169.11377,-0.0621309020
3167.82813,-0.0589408353
3166.54248,-0.0554345362
3165.25684,-0.0520118177
3163.97119,-0.0485445596
3162.68555,-0.0451308265
3161.39990,-0.0427708440
3160.11426,-0.0425547846
3158.82861,-0.0440554731
3157.54297,-0.0453686453
3156.25732,-0.0451816842
3154.97168,-0.0440775082
3153.68604,-0.0433644876
3152.40039,-0.0433486551
3151.11475,-0.0432518870
3149.82910,-0.0423553400
3148.54346,-0.0408164673
3147.25781,-0.0394417420
3145.97217,-0.0387034938
3144.68652,-0.0381455459
3143.40088,-0.0370442308
3142.11523,-0.0355094299
3140.82959,-0.0343764834
3139.54395,-0.0340506211
3138.25830,-0.0340654626
3136.97266,-0.0337253325
3135.68701,-0.0326628275
3134.40137,-0.0308143143
3133.11572,-0.0285169408
3131.83008,-0.0267175063
3130.54443,-0.0264239926
3129.25879,-0.0276153591
3127.97314,-0.0290422123
3126.68750,-0.0293296017
3125.40186,-0.0281190611
3124.11621,-0.0260318518
3122.83057,-0.0237337258
3121.54492,-0.0214475207
3120.25928,-0.0192633923
3118.97363,-0.0174443163
3117.68799,-0.0162020866
3116.40234,-0.0153930429
3115.11670,-0.0146843530
3113.83105,-0.0139622716
3112.54541,-0.0134078860
3111.25977,-0.0131294997
3109.97412,-0.0129027022
3108.68848,-0.0124206748
3107.40283,-0.0117006144
3106.11719,-0.0109706735
3104.83154,-0.0101657240
3103.54590,-0.0089113442
3102.26025,-0.0071694111
3100.97461,-0.0055429037
3099.68896,-0.0046396763
3098.40332,-0.0043333126
3097.11768,-0.0039647659
3095.83203,-0.0031289284
3094.54639,-0.0020161786
3093.26074,-0.0010326053
3091.97510,-0.0003121761
3090.68945,0.0003457153
3089.40381,0.0011989572
3088.11816,0.0022906482
3086.83252,0.0034039528
3085.54688,0.0042609302
3084.26123,0.0048208428
3082.97559,0.0053395992
3081.68994,0.0060458798
3080.40430,0.0068256981
3079.11865,0.0074245823
3077.83301,0.0078977412
3076.54736,0.0085638948
3075.26172,0.0094650397
3073.97607,0.0101770610
3072.69043,0.0103063984
3071.40479,0.0099868346
3070.11914,0.0097643370
3068.83350,0.0100837117
3067.54785,0.0109748784
3066.26221,0.0121875247
3064.97656,0.0135380607
3063.69092,0.0150100021
3062.40527,0.0164958499
3061.11963,0.0176253263
3059.83398,0.0180646963
3058.54834,0.0179000087
3057.26270,0.0175670460
3055.97705,0.0175012294
3054.69141,0.0179565251
3053.40576,0.0189580489
3052.12012,0.0202163570
3050.83447,0.0212355889
3049.54883,0.0217468254
3048.26318,0.0219849404
3046.97754,0.0223994441
3045.69189,0.0231865514
3044.40625,0.0242003314
3043.12061,0.0252079256
3041.83496,0.0260739420
3040.54932,0.0267693866
3039.26367,0.0273194071
3037.97803,0.0277682319
3036.69238,0.0281732120
3035.40674,0.0286191329
3034.12109,0.0292039458
3032.83545,0.0299610868
3031.54980,0.0307997335
3030.26416,0.0315539837
3028.97852,0.0321162082
3027.69287,0.0325259902
3026.40723,0.0329395682
3025.12158,0.0334925428
3023.83594,0.0341614708
3022.55029,0.0347793214
3021.26465,0.0352349989
3019.97900,0.0356250070
3018.69336,0.0361244716
3017.40771,0.0367252603
3016.12207,0.0372431986
3014.83643,0.0375978947
3013.55078,0.0379380211
3012.26514,0.0384132266
3010.97949,0.0389585793
3009.69385,0.0394124016
3008.40820,0.0397379845
3007.12256,0.0400114357
3005.83691,0.0402672775
3004.55127,0.0404803641
3003.26563,0.0406893790
3001.97998,0.0410434604
3000.69434,0.0416629203
2999.40869,0.0424676389
2998.12305,0.0431881100
2996.83740,0.0435853004
2995.55176,0.0436436571
2994.26611,0.0435319617
2992.98047,0.0434381664
2991.69482,0.0435074084
2990.40918,0.0438483283
2989.12354,0.0444461443
2987.83789,0.0450715162
2986.55225,0.0454289615
2985.26660,0.0454698019
2983.98096,0.0454724208
2982.69531,0.0457321629
2981.40967,0.0462175123
2980.12402,0.0466303006
2978.83838,0.0468078181
2977.55273,0.0469514802
2976.26709,0.0473596901
2974.98145,0.0480117984
2973.69580,0.0485555641
2972.41016,0.0487192720
2971.12451,0.0486035086
2969.83887,0.0485209748
2968.55322,0.0486414023
2967.26758,0.0488682315
2965.98193,0.0490060262
2964.69629,0.0489736609
2963.41064,0.0488415807
2962.12500,0.0487098545
2960.83936,0.0485988446
2959.55371,0.0484692790
2958.26807,0.0483144931
2956.98242,0.0481871553
2955.69678,0.0481432825
2954.41113,0.0482053757
2953.12549,0.0483739264
2951.83984,0.0486254804
2950.55420,0.0488928258
2949.26855,0.0491078719
2947.98291,0.0492850021
2946.69727,0.0495054349
2945.41162,0.0497790985
2944.12598,0.0499773324
2942.84033,0.0499564223
2941.55469,0.0497193038
2940.26904,0.0493932068
2938.98340,0.0490718447
2937.69775,0.0487368777
2936.41211,0.0483251102
2935.12646,0.0477976128
2933.84082,0.0471386984
2932.55518,0.0463589616
2931.26953,0.0455398262
2929.98389,0.0448305383
2928.69824,0.0443613306
2927.41260,0.0441580825
2926.12695,0.0441504307
2924.84131,0.0442447476
2923.55566,0.0443872176
2922.27002,0.0445739701
2920.98438,0.0448301062
2919.69873,0.0451860055
2918.41309,0.0456688628
2917.12744,0.0462947339
2915.84180,0.0470459163
2914.55615,0.0478569455
2913.27051,0.0486374088
2911.98486,0.0493208766
2910.69922,0.0498971194
2909.41357,0.0503978133
2908.12793,0.0508416668
2906.84229,0.0511907600
2905.55664,0.0513811819
2904.27100,0.0514146648
2902.98535,0.0513891988
2901.69971,0.0514119267
2900.41406,0.0515078045
2899.12842,0.0516388603
2897.84277,0.0517815948
2896.55713,0.0519349389
2895.27148,0.0520750545
2893.98584,0.0521596074
2892.70020,0.0521776751
2891.41455,0.0521594882
2890.12891,0.0521406904
2888.84326,0.0521416254
2887.55762,0.0521747284
2886.27197,0.0522413440
2884.98633,0.0523111559
2883.70068,0.0523270965
2882.41504,0.0522493124
2881.12939,0.0521022305
2879.84375,0.0519614294
2878.55811,0.0518830679
2877.27246,0.0518467836
2875.98682,0.0517931432
2874.70117,0.0517110266
2873.41553,0.0516515411
2872.12988,0.0516430624
2870.84424,0.0516291521
2869.55859,0.0515189394
2868.27295,0.0512821898
2866.98730,0.0509710424
2865.70166,0.0506639034
2864.41602,0.0504120626
2863.13037,0.0502195023
2861.84473,0.0500320829
2860.55908,0.0497526824
2859.27344,0.0493071303
2857.98779,0.0487126336
2856.70215,0.0480611846
2855.41650,0.0474424921
2854.13086,0.0469253175
2852.84521,0.0466183163
2851.55957,0.0466825292
2850.27393,0.0472084731
2848.98828,0.0480815656
2847.70264,0.0490259379
2846.41699,0.0498114675
2845.13135,0.0503952280
2843.84570,0.0508596562
2842.56006,0.0512625240
2841.27441,0.0515753403
2839.98877,0.0517468639
2838.70313,0.0517903157
2837.41748,0.0517850667
2836.13184,0.0517969653
2834.84619,0.0518222526
2833.56055,0.0518310890
2832.27490,0.0518480390
2830.98926,0.0519358404
2829.70361,0.0520960093
2828.41797,0.0522400923
2827.13232,0.0522862747
2825.84668,0.0522502810
2824.56104,0.0522117130
2823.27539,0.0522207022
2821.98975,0.0522517711
2820.70410,0.0522188060
2819.41846,0.0520287715
2818.13281,0.0516622178
2816.84717,0.0512167662
2815.56152,0.0508510694
2814.27588,0.0506691374
2812.99023,0.0506624430
2811.70459,0.0507430322
2810.41895,0.0508035459
2809.13330,0.0507699139
2807.84766,0.0506401919
2806.56201,0.0504738726
2805.27637,0.0503270030
2803.99072,0.0502066016
2802.70508,0.0500976183
2801.41943,0.0499989986
2800.13379,0.0499048755
2798.84814,0.0497856028
2797.56250,0.0496225990
2796.27686,0.0494453013
2794.99121,0.0493026040
2793.70557,0.0492133312
2792.41992,0.0491547398
2791.13428,0.0490837581
2789.84863,0.0489629395
2788.56299,0.0487984791
2787.27734,0.0486579090
2785.99170,0.0486069545
2784.70605,0.0486214831
2783.42041,0.0486010462
2782.13477,0.0484791473
2780.84912,0.0482771769
2779.56348,0.0480515249
2778.27783,0.0478391685
2776.99219,0.0476684608
2775.70654,0.0475680828
2774.42090,0.0475332253
2773.13525,0.0475117676
2771.84961,0.0474549383
2770.56396,0.0473697074
2769.27832,0.0473144241
2767.99268,0.0473384671
2766.70703,0.0474330783
2765.42139,0.0475303344
2764.13574,0.0475572236
2762.85010,0.0474942662
2761.56445,0.0473888181
2760.27881,0.0473141037
2758.99316,0.0473129824
2757.70752,0.0473665260
2756.42188,0.0474070087
2755.13623,0.0473726839
2753.85059,0.0472724251
2752.56494,0.0471948236
2751.27930,0.0472230762
2749.99365,0.0473342277
2748.70801,0.0474064872
2747.42236,0.0473487191
2746.13672,0.0472039431
2744.85107,0.0470970348
2743.56543,0.0471041314
2742.27979,0.0472096577
2740.99414,0.0473692752
2739.70850,0.0475514457
2738.42285,0.0477080122
2737.13721,0.0477703661
2735.85156,0.0477223694
2734.56592,0.0476447158
2733.28027,0.0476422571
2731.99463,0.0477260984
2730.70898,0.0477994047
2729.42334,0.0477604233
2728.13770,0.0475998819
2726.85205,0.0473921672
2725.56641,0.0472180508
2724.28076,0.0471150689
2722.99512,0.0470903702
2721.70947,0.0471442081
2720.42383,0.0472598746
2719.13818,0.0473871715
2717.85254,0.0474600196
2716.56689,0.0474404693
2715.28125,0.0473476201
2713.99561,0.0472509824
2712.70996,0.0472274050
2711.42432,0.0472971946
2710.13867,0.0473836809
2708.85303,0.0473733433
2707.56738,0.0472408533
2706.28174,0.0470915511
2704.99609,0.0470456555
2703.71045,0.0471153893
2702.42480,0.0472316183
2701.13916,0.0473477095
2699.85352,0.0474562347
2698.56787,0.0475364029
2697.28223,0.0475575700
2695.99658,0.0475321859
2694.71094,0.0475093983
2693.42529,0.0475171953
2692.13965,0.0475438200
2690.85400,0.0475716926
2689.56836,0.0475960150
2688.28271,0.0476200208
2686.99707,0.0476569049
2685.71143,0.0477286987
2684.42578,0.0478423499
2683.14014,0.0479701944
2681.85449,0.0480747409
2680.56885,0.0481536910
2679.28320,0.0482511371
2677.99756,0.0484144352
2676.71191,0.0486421585
2675.42627,0.0488789752
2674.14063,0.0490621664
2672.85498,0.0491615273
2671.56934,0.0491799302
2670.28369,0.0491447113
2668.99805,0.0491137207
2667.71240,0.0491622761
2666.42676,0.0493237451
2665.14111,0.0495470949
2663.85547,0.0497393310
2662.56982,0.0498571433
2661.28418,0.0499443412
2659.99854,0.0500734150
2658.71289,0.0502634086
2657.42725,0.0504602976
2656.14160,0.0505939126
2654.85596,0.0506474636
2653.57031,0.0506751835
2652.28467,0.0507438742
2650.99902,0.0508589558
2649.71338,0.0509568080
2648.42773,0.0509885065
2647.14209,0.0509961061
2645.85645,0.0510745384
2644.57080,0.0512582734
2643.28516,0.0514748953
2641.99951,0.0516272001
2640.71387,0.0516922139
2639.42822,0.0517249629
2638.14258,0.0517908074
2636.85693,0.0519139618
2635.57129,0.0520721339
2634.28564,0.0522089973
2633.00000,0.0522636808
2631.71436,0.0522240065
2630.42871,0.0521575660
2629.14307,0.0521744639
2627.85742,0.0523363836
2626.57178,0.0526006520
2625.28613,0.0528529696
2624.00049,0.0529944338
2622.71484,0.0530037954
2621.42920,0.0529306829
2620.14355,0.0528431199
2618.85791,0.0527808219
2617.57227,0.0527409539
2616.28662,0.0526953302
2615.00098,0.0526317395
2613.71533,0.0525831766
2612.42969,0.0526025780
2611.14404,0.0526940450
2609.85840,0.0527912006
2608.57275,0.0528212190
2607.28711,0.0527717881
2606.00146,0.0526806302
2604.71582,0.0525851063
2603.43018,0.0525108092
2602.14453,0.0524870008
2600.85889,0.0525319614
2599.57324,0.0526166894
2598.28760,0.0526663661
2597.00195,0.0526134744
2595.71631,0.0524495840
2594.43066,0.0522225425
2593.14502,0.0519873686
2591.85938,0.0517778620
2590.57373,0.0516202636
2589.28809,0.0515403636
2588.00244,0.0515356995
2586.71680,0.0515606180
2585.43115,0.0515670292
2584.14551,0.0515416451
2582.85986,0.0514990278
2581.57422,0.0514570363
2580.28857,0.0514305718
2579.00293,0.0514227636
2577.71729,0.0514137037
2576.43164,0.0513794981
2575.14600,0.0513183996
2573.86035,0.0512469113
2572.57471,0.0511840023
2571.28906,0.0511526056
2570.00342,0.0511697307
2568.71777,0.0512103587
2567.43213,0.0512072407
2566.14648,0.0511093065
2564.86084,0.0509360284
2563.57520,0.0507664494
2562.28955,0.0506812632
2561.00391,0.0507027619
2559.71826,0.0507689826
2558.43262,0.0507867001
2557.14697,0.0507163219
2555.86133,0.0505871661
2554.57568,0.0504310429
2553.29004,0.0502518751
2552.00439,0.0500718467
2550.71875,0.0499455594
2549.43311,0.0498946831
2548.14746,0.0498658754
2546.86182,0.0497943684
2545.57617,0.0496823266
2544.29053,0.0495798551
2543.00488,0.0495056100
2541.71924,0.0494236015
2540.43359,0.0492964573
2539.14795,0.0491298102
2537.86230,0.0489510037
2536.57666,0.0487677529
2535.29102,0.0485677496
2534.00537,0.0483492985
2532.71973,0.0481316224
2531.43408,0.0479316339
2530.14844,0.0477450229
2528.86279,0.0475555174
2527.57715,0.0473547503
2526.29150,0.0471432284
2525.00586,0.0469187424
2523.72021,0.0466750637
2522.43457,0.0464174300
2521.14893,0.0461601615
2519.86328,0.0459043011
2518.57764,0.0456339568
2517.29199,0.0453536101
2516.00635,0.0451080464
2514.72070,0.0449437499
2513.43506,0.0448498242
2512.14941,0.0447568707
2510.86377,0.0445967726
2509.57813,0.0443635918
2508.29248,0.0441174172
2507.00684,0.0439245664
2505.72119,0.0437918305
2504.43555,0.0436615460
2503.14990,0.0434704646
2501.86426,0.0432006381
2500.57861,0.0428847373
2499.29297,0.0425798595
2498.00732,0.0423385464
2496.72168,0.0421790257
2495.43604,0.0420789383
2494.15039,0.0420035124
2492.86475,0.0419263318
2491.57910,0.0418166928
2490.29346,0.0416338332
2489.00781,0.0413651653
2487.72217,0.0410527028
2486.43652,0.0407569893
2485.15088,0.0405017361
2483.86523,0.0402794890
2482.57959,0.0400933847
2481.29395,0.0399552397
2480.00830,0.0398406796
2478.72266,0.0396921486
2477.43701,0.0394833833
2476.15137,0.0392528214
2474.86572,0.0390495695
2473.58008,0.0388672762
2472.29443,0.0386612564
2471.00879,0.0384185202
2469.72314,0.0381762274
2468.43750,0.0379625969
2467.15186,0.0377468988
2465.86621,0.0374791585
2464.58057,0.0371783338
2463.29492,0.0369462036
2462.00928,0.0368666984
2460.72363,0.0369016416
2459.43799,0.0369147509
2458.15234,0.0367990769
2456.86670,0.0365654305
2455.58105,0.0363060385
2454.29541,0.0360884368
2453.00977,0.0358983539
2451.72412,0.0356808975
2450.43848,0.0354234688
2449.15283,0.0351760499
2447.86719,0.0349894799
2446.58154,0.0348672234
2445.29590,0.0347859971
2444.01025,0.0347198732
2442.72461,0.0346290283
2441.43896,0.0344720669
2440.15332,0.0342647955
2438.86768,0.0340907387
2437.58203,0.0340128504
2436.29639,0.0340003371
2435.01074,0.0339690708
2433.72510,0.0338740759
2432.43945,0.0337365754
2431.15381,0.0335949212
2429.86816,0.0334547982
2428.58252,0.0332962722
2427.29688,0.0331149213
2426.01123,0.0329423621
2424.72559,0.0328153148
2423.43994,0.0327316001
2422.15430,0.0326465592
2420.86865,0.0325134620
2419.58301,0.0323238261
2418.29736,0.0321089029
2417.01172,0.0319047607
2415.72607,0.0317195877
2414.44043,0.0315374509
2413.15479,0.0313489325
2411.86914,0.0311680622
2410.58350,0.0310199857
2409.29785,0.0309222713
2408.01221,0.0308652669
2406.72656,0.0308023747
2405.44092,0.0306800399
2404.15527,0.0305006411
2402.86963,0.0303325858
2401.58398,0.0302358568
2400.29834,0.0301956460
2399.01270,0.0301496107
2397.72705,0.0300560892
2396.44141,0.0299140755
2395.15576,0.0297342185
2393.87012,0.0295198578
2392.58447,0.0292805899
2391.29883,0.0290586185
2390.01318,0.0289353579
2388.72754,0.0289975666
2387.44189,0.0292849690
2386.15625,0.0297755823
2384.87061,0.0304263942
2383.58496,0.0312248599
2382.29932,0.0322073027
2381.01367,0.0334304459
2379.72803,0.0349138416
2378.44238,0.0366022326
2377.15674,0.0384077989
2375.87109,0.0403097980
2374.58545,0.0423819795
2373.29980,0.0446880944
2372.01416,0.0471874066
2370.72852,0.0497800596
2369.44287,0.0523863509
2368.15723,0.0549168363
2366.87158,0.0572227649
2365.58594,0.0591838621
2364.30029,0.0608224832
2363.01465,0.0622252412
2361.72900,0.0633477196
2360.44336,0.0639999285
2359.15771,0.0640180707
2357.87207,0.0633218512
2356.58643,0.0618526600
2355.30078,0.0596347749
2354.01514,0.0568295829
2352.72949,0.0536769181
2351.44385,0.0505390093
2350.15820,0.0479231328
2348.87256,0.0462971851
2347.58691,0.0459478647
2346.30127,0.0469430275
2345.01563,0.0489791371
2343.72998,0.0512094870
2342.44434,0.0526303910
2341.15869,0.0528628826
2339.87305,0.0522139035
2338.58740,0.0511883385
2337.30176,0.0501821041
2336.01611,0.0493985713
2334.73047,0.0488954037
2333.44482,0.0486492515
2332.15918,0.0485568680
2330.87354,0.0484439842
2329.58789,0.0481393486
2328.30225,0.0475450940
2327.01660,0.0466760173
2325.73096,0.0456838794
2324.44531,0.0447873771
2323.15967,0.0440853536
2321.87402,0.0434492975
2320.58838,0.0426494479
2319.30273,0.0415638089
2318.01709,0.0402429104
2316.73145,0.0388562903
2315.44580,0.0376135334
2314.16016,0.0366554633
2312.87451,0.0359531567
2311.58887,0.0353315547
2310.30322,0.0346152373
2309.01758,0.0337363221
2307.73193,0.0327264369
2306.44629,0.0316771567
2305.16064,0.0307131559
2303.87500,0.0299293865
2302.58936,0.0293187276
2301.30371,0.0287849735
2300.01807,0.0282443948
2298.73242,0.0276934542
2297.44678,0.0271697715
2296.16113,0.0266739167
2294.87549,0.0261618569
2293.58984,0.0256137662
2292.30420,0.0250770915
2291.01855,0.0246140249
2289.73291,0.0242172182
2288.44727,0.0238172468
2287.16162,0.0233784411
2285.87598,0.0229528509
2284.59033,0.0226205476
2283.30469,0.0224144347
2282.01904,0.0223233793
2280.73340,0.0223315265
2279.44775,0.0224121734
2278.16211,0.0225096829
2276.87646,0.0225709733
2275.59082,0.0225834344
2274.30518,0.0225514770
2273.01953,0.0224626567
2271.73389,0.0223190449
2270.44824,0.0221800078
2269.16260,0.0221170802
2267.87695,0.0221231002
2266.59131,0.0221057236
2265.30566,0.0219849683
2264.02002,0.0217723269
2262.73438,0.0215502642
2261.44873,0.0213926546
2260.16309,0.0213157590
2258.87744,0.0212916173
2257.59180,0.0212806333
2256.30615,0.0212467611
2255.02051,0.0211680718
2253.73486,0.0210535806
2252.44922,0.0209443104
2251.16357,0.0208765641
2249.87793,0.0208490789
2248.59229,0.0208352301
2247.30664,0.0208148323
2246.02100,0.0207831431
2244.73535,0.0207413826
2243.44971,0.0206876229
2242.16406,0.0206091963
2240.87842,0.0204875004
2239.59277,0.0203307327
2238.30713,0.0201903228
2237.02148,0.0201127455
2235.73584,0.0200815666
2234.45020,0.0200424753
2233.16455,0.0199830569
2231.87891,0.0199476313
2230.59326,0.0199674163
2229.30762,0.0200130902
2228.02197,0.0200276989
2226.73633,0.0199869871
2225.45068,0.0199131854
2224.16504,0.0198402368
2222.87939,0.0197766740
2221.59375,0.0197057799
2220.30811,0.0196148828
2219.02246,0.0195121486
2217.73682,0.0194123052
2216.45117,0.0193228498
2215.16553,0.0192536283
2213.87988,0.0192234833
2212.59424,0.0192468334
2211.30859,0.0193199813
2210.02295,0.0194239989
2208.73730,0.0195318330
2207.45166,0.0196151286
2206.16602,0.0196580272
2204.88037,0.0196601953
2203.59473,0.0196183249
2202.30908,0.0195175651
2201.02344,0.0193616617
2199.73779,0.0192028116
2198.45215,0.0191176496
2197.16650,0.0191370975
2195.88086,0.0192073863
2194.59521,0.0192300323
2193.30957,0.0191505700
2192.02393,0.0190010723
2190.73828,0.0188549813
2189.45264,0.0187591538
2188.16699,0.0187213980
2186.88135,0.0187346656
2185.59570,0.0187835339
2184.31006,0.0188446268
2183.02441,0.0189088359
2181.73877,0.0189866051
2180.45313,0.0190654974
2179.16748,0.0190907344
2177.88184,0.0190234669
2176.59619,0.0189094059
2175.31055,0.0188527089
2174.02490,0.0189174358
2172.73926,0.0190692283
2171.45361,0.0192154199
2170.16797,0.0192907006
2168.88232,0.0192981400
2167.59668,0.0192738958
2166.31104,0.0192356855
2165.02539,0.0191896092
2163.73975,0.0191659890
2162.45410,0.0192032997
2161.16846,0.0192889143
2159.88281,0.0193623658
2158.59717,0.0193937104
2157.31152,0.0194257312
2156.02588,0.0195101164
2154.74023,0.0196349248
2153.45459,0.0197438672
2152.16895,0.0198043641
2150.88330,0.0198218115
2149.59766,0.0198053941
2148.31201,0.0197658092
2147.02637,0.0197417010
2145.74072,0.0197840445
2144.45508,0.0198976304
2143.16943,0.0200277269
2141.88379,0.0201177336
2140.59814,0.0201582704
2139.31250,0.0201757327
2138.02686,0.0201968309
2136.74121,0.0202371310
2135.45557,0.0203054547
2134.16992,0.0204030611
2132.88428,0.0205209609
2131.59863,0.0206374563
2130.31299,0.0207180306
2129.02734,0.0207317416
2127.74170,0.0206842292
2126.45605,0.0206213295
2125.17041,0.0205840897
2123.88477,0.0205730423
2122.59912,0.0205732863
2121.31348,0.0206056144
2120.02783,0.0207211245
2118.74219,0.0209375452
2117.45654,0.0212029163
2116.17090,0.0214365441
2114.88525,0.0215970576
2113.59961,0.0216969419
2112.31396,0.0217605699
2111.02832,0.0217979364
2109.74268,0.0218215901
2108.45703,0.0218598638
2107.17139,0.0219350848
2105.88574,0.0220467597
2104.60010,0.0221857540
2103.31445,0.0223440379
2102.02881,0.0225009583
2100.74316,0.0226252656
2099.45752,0.0227091294
2098.17188,0.0227771867
2096.88623,0.0228504129
2095.60059,0.0229240600
2094.31494,0.0229917411
2093.02930,0.0230655763
2091.74365,0.0231579356
2090.45801,0.0232635029
2089.17236,0.0233672671
2087.88672,0.0234585442
2086.60107,0.0235369410
2085.31543,0.0236136019
2084.02979,0.0237076078
2082.74414,0.0238305666
2081.45850,0.0239815675
2080.17285,0.0241557769
2078.88721,0.0243416894
2077.60156,0.0245099347
2076.31592,0.0246292576
2075.03027,0.0247065220
2073.74463,0.0247881021
2072.45898,0.0249107648
2071.17334,0.0250625014
2069.88770,0.0252036471
2068.60205,0.0253227483
2067.31641,0.0254519545
2066.03076,0.0256200805
2064.74512,0.0257987399
2063.45947,0.0259246528
2062.17383,0.0259843133
2060.88818,0.0260425247
2059.60254,0.0261668060
2058.31689,0.0263488516
2057.03125,0.0265196078
2055.74561,0.0266302358
2054.45996,0.0266956650
2053.17432,0.0267631933
2051.88867,0.0268542208
2050.60303,0.0269532260
2049.31738,0.0270474646
2048.03174,0.0271581709
2046.74609,0.0273119099
2045.46045,0.0274936110
2044.17480,0.0276518483
2042.88916,0.0277484749
2041.60352,0.0277944766
2040.31787,0.0278404802
2039.03223,0.0279378630
2037.74658,0.0280954391
2036.46094,0.0282665528
2035.17529,0.0283890683
2033.88965,0.0284483470
2032.60400,0.0284938700
2031.31836,0.0285895485
2030.03271,0.0287483558
2028.74707,0.0289184004
2027.46143,0.0290313829
2026.17578,0.0290692467
2024.89014,0.0290798191
2023.60449,0.0291221980
2022.31885,0.0292062461
2021.03320,0.0293037388
2019.74756,0.0294047743
2018.46191,0.0295339841
2017.17627,0.0297068320
2015.89063,0.0298877060
2014.60498,0.0300088748
2013.31934,0.0300287362
2012.03369,0.0299705416
2010.74805,0.0299032908
2009.46240,0.0298829377
2008.17676,0.0299067851
2006.89111,0.0299311914
2005.60547,0.0299242828
2004.31982,0.0298873726
2003.03418,0.0298412647
2001.74854,0.0298157241
2000.46289,0.0298437849
1999.17725,0.0299346000
1997.89160,0.0300595276
1996.60596,0.0301884878
1995.32031,0.0303318910
1994.03467,0.0305110272
1992.74902,0.0306939576
1991.46338,0.0307978764
1990.17773,0.0307792295
1988.89209,0.0306852628
1987.60645,0.0305912904
1986.32080,0.0305293817
1985.03516,0.0304933935
1983.74951,0.0304751508
1982.46387,0.0304702632
1981.17822,0.0304635148
1979.89258,0.0304376353
1978.60693,0.0304002687
1977.32129,0.0303821098
1976.03564,0.0303974915
1974.75000,0.0304245874
1973.46436,0.0304345842
1972.17871,0.0304272547
1970.89307,0.0304271411
1969.60742,0.0304520205
1968.32178,0.0304927565
1967.03613,0.0305125546
1965.75049,0.0304722637
1964.46484,0.0303723961
1963.17920,0.0302571990
1961.89355,0.0301674828
1960.60791,0.0301045831
1959.32227,0.0300500952
1958.03662,0.0299962536
1956.75098,0.0299361814
1955.46533,0.0298494119
1954.17969,0.0297288969
1952.89404,0.0296116583
1951.60840,0.0295484513
1950.32275,0.0295524094
1949.03711,0.0296024010
1947.75146,0.0296907574
1946.46582,0.0298371837
1945.18018,0.0300411079
1943.89453,0.0302308649
1942.60889,0.0302801803
1941.32324,0.0301178433
1940.03760,0.0298150294
1938.75195,0.0295117386
1937.46631,0.0292943250
1936.18066,0.0291797780
1934.89502,0.0291506294
1933.60938,0.0291632786
1932.32373,0.0291489661
1931.03809,0.0290460791
1929.75244,0.0288482402
1928.46680,0.0286175311
1927.18115,0.0284613669
1925.89551,0.0284768175
1924.60986,0.0286721960
1923.32422,0.0289164614
1922.03857,0.0290206764
1920.75293,0.0289268643
1919.46729,0.0287416056
1918.18164,0.0285621770
1916.89600,0.0283777919
1915.61035,0.0281587932
1914.32471,0.0279525239
1913.03906,0.0278340243
1911.75342,0.0278260484
1910.46777,0.0278772730
1909.18213,0.0278847795
1907.89648,0.0277619082
1906.61084,0.0275206100
1905.32520,0.0272640865
1904.03955,0.0270807445
1902.75391,0.0269670263
1901.46826,0.0268567540
1900.18262,0.0267128665
1898.89697,0.0265699644
1897.61133,0.0264872219
1896.32568,0.0264714323
1895.04004,0.0264644697
1893.75439,0.0264222398
1892.46875,0.0263791364
1891.18311,0.0263843331
1889.89746,0.0264019128
1888.61182,0.0263328161
1887.32617,0.0261437930
1886.04053,0.0258995686
1884.75488,0.0256605018
1883.46924,0.0254385341
1882.18359,0.0252327267
1880.89795,0.0250464305
1879.61230,0.0248794295
1878.32666,0.0247319788
1877.04102,0.0246160813
1875.75537,0.0245501697
1874.46973,0.0245529097
1873.18408,0.0246507358
1871.89844,0.0248816218
1870.61279,0.0252594501
1869.32715,0.0256771185
1868.04150,0.0258557443
1866.75586,0.0255926792
1865.47021,0.0250454713
1864.18457,0.0245173592
1862.89893,0.0241631381
1861.61328,0.0239711720
1860.32764,0.0238538906
1859.04199,0.0237244479
1857.75635,0.0235484187
1856.47070,0.0233571343
1855.18506,0.0232087765
1853.89941,0.0231233966
1852.61377,0.0230810810
1851.32813,0.0230810009
1850.04248,0.0231606662
1848.75684,0.0233435314
1847.47119,0.0236078054
1846.18555,0.0239087269
1844.89990,0.0241586231
1843.61426,0.0241937619
1842.32861,0.0239365455
1841.04297,0.0235548951
1839.75732,0.0232621115
1838.47168,0.0231196564
1837.18604,0.0230484623
1835.90039,0.0229465738
1834.61475,0.0228176173
1833.32910,0.0227705594
1832.04346,0.0228973441
1830.75781,0.0231636688
1829.47217,0.0233874563
1828.18652,0.0234076176
1826.90088,0.0232760124
1825.61523,0.0231233425
1824.32959,0.0229631402
1823.04395,0.0227384791
1821.75830,0.0224670433
1820.47266,0.0222388543
1819.18701,0.0221119076
1817.90137,0.0220731217
1816.61572,0.0220804736
1815.33008,0.0221128035
1814.04443,0.0221796539
1812.75879,0.0222909525
1811.47314,0.0224151723
1810.18750,0.0224684887
1808.90186,0.0223926306
1807.61621,0.0222367290
1806.33057,0.0221123435
1805.04492,0.0221068952
1803.75928,0.0222604331
1802.47363,0.0225554314
1801.18799,0.0228855554
1799.90234,0.0230996180
1798.61670,0.0231576078
1797.33105,0.0231677648
1796.04541,0.0232532639
1794.75977,0.0234972369
1793.47412,0.0239427257
1792.18848,0.0244596265
1790.90283,0.0246867668
1789.61719,0.0244788490
1788.33154,0.0241384823
1787.04590,0.0240093358
1785.76025,0.0242231581
1784.47461,0.0247144420
1783.18896,0.0253357291
1781.90332,0.0259976983
1780.61768,0.0266751554
1779.33203,0.0273338780
1778.04639,0.0279681496
1776.76074,0.0286824238
1775.47510,0.0296497345
1774.18945,0.0310107861
1772.90381,0.0327603519
1771.61816,0.0345869549
1770.33252,0.0360596888
1769.04688,0.0371802002
1767.76123,0.0382825993
1766.47559,0.0395761542
1765.18994,0.0411134250
1763.90430,0.0430407710
1762.61865,0.0456186309
1761.33301,0.0488046482
1760.04736,0.0520714074
1758.76172,0.0551436096
1757.47607,0.0583276190
1756.19043,0.0618077144
1754.90479,0.0653479695
1753.61914,0.0688990504
1752.33350,0.0729537308
1751.04785,0.0781350955
1749.76221,0.0844467208
1748.47656,0.0908907205
1747.19092,0.0965112522
1745.90527,0.1013913900
1744.61963,0.1060762554
1743.33398,0.1108648181
1742.04834,0.1158512160
1740.76270,0.1211925447
1739.47705,0.1267722845
1738.19141,0.1318650097
1736.90576,0.1360750347
1735.62012,0.1401909590
1734.33447,0.1454716027
1733.04883,0.1515975147
1731.76318,0.1563460678
1730.47754,0.1591968685
1729.19189,0.1612448990
1727.90625,0.1630733460
1726.62061,0.1647524387
1725.33496,0.1663010120
1724.04932,0.1676730067
1722.76367,0.1687080562
1721.47803,0.1693388969
1720.19238,0.1697025299
1718.90674,0.1699635237
1717.62109,0.1699592024
1716.33545,0.1689251661
1715.04980,0.1664668769
1713.76416,0.1633685082
1712.47852,0.1602959186
1711.19287,0.1573013812
1709.90723,0.1543287337
1708.62158,0.1514167339
1707.33594,0.1484475434
1706.05029,0.1450673044
1704.76465,0.1412591636
1703.47900,0.1375749111
1702.19336,0.1342181265
1700.90771,0.1305963397
1699.62207,0.1261438280
1698.33643,0.1212872714
1697.05078,0.1164272800
1695.76514,0.1111064777
1694.47949,0.1055800617
1693.19385,0.1008778512
1691.90820,0.0971994102
1690.62256,0.0939775333
1689.33691,0.0908124074
1688.05127,0.0878363550
1686.76563,0.0853299424
1685.47998,0.0831506327
1684.19434,0.0806470811
1682.90869,0.0774193257
1681.62305,0.0741212666
1680.33740,0.0712895989
1679.05176,0.0689430162
1677.76611,0.0670664608
1676.48047,0.0655476898
1675.19482,0.0640754923
1673.90918,0.0624971092
1672.62354,0.0610950924
1671.33789,0.0600453988
1670.05225,0.0589821525
1668.76660,0.0574530028
1667.48096,0.0557274446
1666.19531,0.0544120818
1664.90967,0.0536737554
1663.62402,0.0534308776
1662.33838,0.0534870364
1661.05273,0.0534604229
1659.76709,0.0531344004
1658.48145,0.0527302548
1657.19580,0.0526112244
1655.91016,0.0530834682
1654.62451,0.0544025488
1653.33887,0.0562803745
1652.05322,0.0569955520
1650.76758,0.0561586246
1649.48193,0.0553752780
1648.19629,0.0552252680
1646.91064,0.0554361790
1645.62500,0.0555423908
1644.33936,0.0555246584
1643.05371,0.0556710586
1641.76807,0.0560430139
1640.48242,0.0565634966
1639.19678,0.0572191365
1637.91113,0.0581164546
1636.62549,0.0592661649
1635.33984,0.0600479804
1634.05420,0.0596536249
1632.76855,0.0585332811
1631.48291,0.0575433299
1630.19727,0.0570778437
1628.91162,0.0572263636
1627.62598,0.0577591248
1626.34033,0.0581780113
1625.05469,0.0581514314
1623.76904,0.0576801263
1622.48340,0.0568854697
1621.19775,0.0559587926
1619.91211,0.0551571958
1618.62646,0.0545802936
1617.34082,0.0539323576
1616.05518,0.0526359491
1614.76953,0.0506777167
1613.48389,0.0486442707
1612.19824,0.0468018204
1610.91260,0.0451127887
1609.62695,0.0435848720
1608.34131,0.0423009060
1607.05566,0.0412519462
1605.77002,0.0403046273
1604.48438,0.0393407270
1603.19873,0.0383332036
1601.91309,0.0373070575
1600.62744,0.0362868719
1599.34180,0.0352916010
1598.05615,0.0343502350
1596.77051,0.0334787853
1595.48486,0.0326320194
1594.19922,0.0317136608
1592.91357,0.0306711812
1591.62793,0.0295685399
1590.34229,0.0285377949
1589.05664,0.0276722107
1587.77100,0.0269660372
1586.48535,0.0263528135
1585.19971,0.0257805549
1583.91406,0.0252292696
1582.62842,0.0246933680
1581.34277,0.0242063273
1580.05713,0.0238705184
1578.77148,0.0237953719
1577.48584,0.0239381306
1576.20020,0.0239257142
1574.91455,0.0233638007
1573.62891,0.0225355830
1572.34326,0.0219276790
1571.05762,0.0216256790
1569.77197,0.0213716347
1568.48633,0.0208158661
1567.20068,0.0199659541
1565.91504,0.0191524103
1564.62939,0.0186289214
1563.34375,0.0184983537
1562.05811,0.0188006721
1560.77246,0.0196018852
1559.48682,0.0208442472
1558.20117,0.0215757843
1556.91553,0.0208828934
1555.62988,0.0196845178
1554.34424,0.0185902584
1553.05859,0.0176541731
1551.77295,0.0168985780
1550.48730,0.0162995011
1549.20166,0.0158015881
1547.91602,0.0154783325
1546.63037,0.0155304568
1545.34473,0.0161019284
1544.05908,0.0171405394
1542.77344,0.0183827002
1541.48779,0.0193787143
1540.20215,0.0193302929
1538.91650,0.0179537181
1537.63086,0.0164939947
1536.34521,0.0157338902
1535.05957,0.0155543080
1533.77393,0.0155430930
1532.48828,0.0152627379
1531.20264,0.0147273121
1529.91699,0.0143500036
1528.63135,0.0143478354
1527.34570,0.0146119921
1526.06006,0.0148819890
1524.77441,0.0150396414
1523.48877,0.0152123347
1522.20313,0.0154464375
1520.91748,0.0154909128
1519.63184,0.0151882069
1518.34619,0.0147485482
1517.06055,0.0143130282
1515.77490,0.0138197094
1514.48926,0.0133149130
1513.20361,0.0130442614
1511.91797,0.0132293208
1510.63232,0.0139449239
1509.34668,0.0151421549
1508.06104,0.0165156927
1506.77539,0.0169290174
1505.48975,0.0154891433
1504.20410,0.0136539526
1502.91846,0.0125050088
1501.63281,0.0120512377
1500.34717,0.0121624200
1499.06152,0.0126907714
1497.77588,0.0133005800
1496.49023,0.0135151222
1495.20459,0.0132329231
1493.91895,0.0128750410
1492.63330,0.0128447497
1491.34766,0.0132836588
1490.06201,0.0140288947
1488.77637,0.0145315770
1487.49072,0.0143520609
1486.20508,0.0137537085
1484.91943,0.0132134696
1483.63379,0.0129594961
1482.34814,0.0129997432
1481.06250,0.0132205412
1479.77686,0.0135150943
1478.49121,0.0139002586
1477.20557,0.0144698033
1475.91992,0.0152627910
1474.63428,0.0162040759
1473.34863,0.0170399752
1472.06299,0.0173216686
1470.77734,0.0169408321
1469.49170,0.0164262690
1468.20605,0.0162959285
1466.92041,0.0167462490
1465.63477,0.0176871195
1464.34912,0.0187379364
1463.06348,0.0195403602
1461.77783,0.0201870147
1460.49219,0.0210492592
1459.20654,0.0225346815
1457.92090,0.0249345601
1456.63525,0.0275929812
1455.34961,0.0290594753
1454.06396,0.0295042004
1452.77832,0.0299238954
1451.49268,0.0307848174
1450.20703,0.0321593285
1448.92139,0.0339308903
1447.63574,0.0358454101
1446.35010,0.0375982076
1445.06445,0.0390487462
1443.77881,0.0402917936
1442.49316,0.0414729752
1441.20752,0.0426456518
1439.92188,0.0438228697
1438.63623,0.0450850204
1437.35059,0.0465004593
1436.06494,0.0478543416
1434.77930,0.0487934686
1433.49365,0.0494195409
1432.20801,0.0500986315
1430.92236,0.0509537756
1429.63672,0.0517891757
1428.35107,0.0523791090
1427.06543,0.0527869314
1425.77979,0.0532320924
1424.49414,0.0537951253
1423.20850,0.0543984137
1421.92285,0.0550397038
1420.63721,0.0559329726
1419.35156,0.0572567880
1418.06592,0.0586836971
1416.78027,0.0596139878
1415.49463,0.0600728616
1414.20898,0.0605102330
1412.92334,0.0611983538
1411.63770,0.0621528327
1410.35205,0.0632618070
1409.06641,0.0644150302
1407.78076,0.0655698776
1406.49512,0.0667072460
1405.20947,0.0677181706
1403.92383,0.0684364215
1402.63818,0.0688741505
1401.35254,0.0692371055
1400.06689,0.0696536303
1398.78125,0.0700346082
1397.49561,0.0702000335
1396.20996,0.0700593591
1394.92432,0.0695980862
1393.63867,0.0688507333
1392.35303,0.0679786578
1391.06738,0.0671884269
1389.78174,0.0665778965
1388.49609,0.0660972670
1387.21045,0.0655761585
1385.92480,0.0648713708
1384.63916,0.0640490577
1383.35352,0.0632987022
1382.06787,0.0627469122
1380.78223,0.0624217615
1379.49658,0.0622956827
1378.21094,0.0623374917
1376.92529,0.0625420734
1375.63965,0.0628807172
1374.35400,0.0632051304
1373.06836,0.0633190051
1371.78271,0.0632411093
1370.49707,0.0632125214
1369.21143,0.0634184182
1367.92578,0.0638630763
1366.64014,0.0644905195
1365.35449,0.0653364435
1364.06885,0.0664642081
1362.78320,0.0677287355
1361.49756,0.0687471628
1360.21191,0.0693297759
1358.92627,0.0697246790
1357.64063,0.0702695996
1356.35498,0.0710885152
1355.06934,0.0720840096
1353.78369,0.0730842501
1352.49805,0.0739946440
1351.21240,0.0748246983
1349.92676,0.0756184906
1348.64111,0.0764150247
1347.35547,0.0772462934
1346.06982,0.0781244710
1344.78418,0.0790349990
1343.49854,0.0799764842
1342.21289,0.0809909403
1340.92725,0.0821052343
1339.64160,0.0832094476
1338.35596,0.0840512142
1337.07031,0.0844809934
1335.78467,0.0846327096
1334.49902,0.0847611576
1333.21338,0.0850226879
1331.92773,0.0854267105
1330.64209,0.0859060138
1329.35645,0.0863937214
1328.07080,0.0868553370
1326.78516,0.0872904807
1325.49951,0.0877125040
1324.21387,0.0881142542
1322.92822,0.0884703025
1321.64258,0.0887830630
1320.35693,0.0890797228
1319.07129,0.0893476754
1317.78564,0.0895330980
1316.50000,0.0896281600
1315.21436,0.0896827355
1313.92871,0.0897112191
1312.64307,0.0896680951
1311.35742,0.0895317271
1310.07178,0.0893495753
1308.78613,0.0891812369
1307.50049,0.0890496895
1306.21484,0.0889528394
1304.92920,0.0888761580
1303.64355,0.0887748078
1302.35791,0.0885798931
1301.07227,0.0882597566
1299.78662,0.0878677890
1298.50098,0.0874958932
1297.21533,0.0871818438
1295.92969,0.0868885741
1294.64404,0.0865727812
1293.35840,0.0862337574
1292.07275,0.0858930722
1290.78711,0.0855691209
1289.50146,0.0852796659
1288.21582,0.0850366950
1286.93018,0.0848276168
1285.64453,0.0846279711
1284.35889,0.0844394639
1283.07324,0.0843028128
1281.78760,0.0842710584
1280.50195,0.0843643248
1279.21631,0.0845389441
1277.93066,0.0847148448
1276.64502,0.0848587826
1275.35938,0.0850384235
1274.07373,0.0853735879
1272.78809,0.0859341845
1271.50244,0.0866917521
1270.21680,0.0875610411
1268.93115,0.0884782001
1267.64551,0.0894428790
1266.35986,0.0905006975
1265.07422,0.0917025208
1263.78857,0.0930861607
1262.50293,0.0946746916
1261.21729,0.0964721367
1259.93164,0.0984598100
1258.64600,0.1006127149
1257.36035,0.1029240265
1256.07471,0.1054128259
1254.78906,0.1081158444
1253.50342,0.1110600978
1252.21777,0.1142194420
1250.93213,0.1174998134
1249.64648,0.1208011359
1248.36084,0.1240902916
1247.07520,0.1273883134
1245.78955,0.1306993663
1244.50391,0.1340010166
1243.21826,0.1372836679
1241.93262,0.1405415982
1240.64697,0.1437202394
1239.36133,0.1467411667
1238.07568,0.1495910734
1236.79004,0.1523315310
1235.50439,0.1549859196
1234.21875,0.1574633718
1232.93311,0.1596407294
1231.64746,0.1614908129
1230.36182,0.1630872637
1229.07617,0.1644866168
1227.79053,0.1656448841
1226.50488,0.1664571911
1225.21924,0.1668600887
1223.93359,0.1668768525
1222.64795,0.1665564626
1221.36230,0.1658871770
1220.07666,0.1648101956
1218.79102,0.1633302420
1217.50537,0.1615661830
1216.21973,0.1596532762
1214.93408,0.1576211154
1213.64844,0.1554072797
1212.36279,0.1529707611
1211.07715,0.1503615975
1209.79150,0.1476869434
1208.50586,0.1450322568
1207.22021,0.1424092948
1205.93457,0.1397783309
1204.64893,0.1371215731
1203.36328,0.1344824731
1202.07764,0.1319160759
1200.79199,0.1294201761
1199.50635,0.1269339770
1198.22070,0.1243850291
1196.93506,0.1217184141
1195.64941,0.1189128682
1194.36377,0.1160090193
1193.07813,0.1131111979
1191.79248,0.1103211045
1190.50684,0.1076620221
1189.22119,0.1050842330
1187.93555,0.1025323346
1186.64990,0.0999773592
1185.36426,0.0973847210
1184.07861,0.0946889147
1182.79297,0.0918280259
1181.50732,0.0887953863
1180.22168,0.0856422260
1178.93604,0.0824412629
1177.65039,0.0792585164
1176.36475,0.0761480629
1175.07910,0.0731564760
1173.79346,0.0703299493
1172.50781,0.0677151009
1171.22217,0.0653454661
1169.93652,0.0632267743
1168.65088,0.0613353215
1167.36523,0.0596285053
1166.07959,0.0580669791
1164.79395,0.0566538833
1163.50830,0.0554570891
1162.22266,0.0545668602
1160.93701,0.0540192053
1159.65137,0.0537737086
1158.36572,0.0537643954
1157.08008,0.0539478622
1155.79443,0.0543084070
1154.50879,0.0548387393
1153.22314,0.0555095598
1151.93750,0.0562494285
1150.65186,0.0569776893
1149.36621,0.0576727949
1148.08057,0.0583800562
1146.79492,0.0591331050
1145.50928,0.0598972142
1144.22363,0.0606051050
1142.93799,0.0612214804
1141.65234,0.0617559701
1140.36670,0.0622402318
1139.08105,0.0627047643
1137.79541,0.0631536394
1136.50977,0.0635414422
1135.22412,0.0637902990
1133.93848,0.0638538674
1132.65283,0.0637746230
1131.36719,0.0636559129
1130.08154,0.0635572895
1128.79590,0.0634364188
1127.51025,0.0632154867
1126.22461,0.0628859550
1124.93896,0.0624999814
1123.65332,0.0620709993
1122.36768,0.0615428314
1121.08203,0.0608686991
1119.79639,0.0600770228
1118.51074,0.0592398122
1117.22510,0.0583988875
1115.93945,0.0575416163
1114.65381,0.0566415302
1113.36816,0.0557090119
1112.08252,0.0547892526
1110.79688,0.0539106689
1109.51123,0.0530563220
1108.22559,0.0522011183
1106.93994,0.0513560995
1105.65430,0.0505414493
1104.36865,0.0497392118
1103.08301,0.0489170738
1101.79736,0.0480989441
1100.51172,0.0473654047
1099.22607,0.0467720963
1097.94043,0.0463046730
1096.65479,0.0459223650
1095.36914,0.0456071608
1094.08350,0.0453601368
1092.79785,0.0451943912
1091.51221,0.0451507568
1090.22656,0.0452789590
1088.94092,0.0455853082
1087.65527,0.0460349433
1086.36963,0.0466004796
1085.08398,0.0472556315
1083.79834,0.0479212850
1082.51270,0.0484869033
1081.22705,0.0489152782
1079.94141,0.0492678992
1078.65576,0.0495887920
1077.37012,0.0498097837
1076.08447,0.0498181470
1074.79883,0.0495997630
1073.51318,0.0492759533
1072.22754,0.0490022898
1070.94189,0.0488657393
1069.65625,0.0488792956
1068.37061,0.0490251854
1067.08496,0.0492705926
1065.79932,0.0495721400
1064.51367,0.0499009565
1063.22803,0.0502552167
1061.94238,0.0506301858
1060.65674,0.0509915017
1059.37109,0.0512836203
1058.08545,0.0514481515
1056.79980,0.0514302514
1055.51416,0.0511987060
1054.22852,0.0507727340
1052.94287,0.0502189212
1051.65723,0.0496238507
1050.37158,0.0490644239
1049.08594,0.0485747866
1047.80029,0.0481265336
1046.51465,0.0476625673
1045.22900,0.0471603386
1043.94336,0.0466434471
1042.65771,0.0461426266
1041.37207,0.0456799977
1040.08643,0.0452828407
1038.80078,0.0449660830
1037.51514,0.0446937419
1036.22949,0.0443966538
1034.94385,0.0440504029
1033.65820,0.0437070355
1032.37256,0.0434223190
1031.08691,0.0431696437
1029.80127,0.0428703390
1028.51563,0.0425113104
1027.22998,0.0421833619
1025.94434,0.0419783033
1024.65869,0.0418940857
1023.37305,0.0418725610
1022.08740,0.0418909192
1020.80176,0.0419700332
1019.51611,0.0421098582
1018.23047,0.0422618464
1016.94482,0.0423678830
1015.65918,0.0424087197
1014.37354,0.0424133465
1013.08789,0.0424273610
1011.80225,0.0424716622
1010.51660,0.0425274968
1009.23096,0.0425573066
1007.94531,0.0425405465
1006.65967,0.0424946137
1005.37402,0.0424641781
1004.08838,0.0424804799
1002.80273,0.0425286964
1001.51709,0.0425654687
1000.23145,0.0425629020
998.94580,0.0425277539
997.66016,0.0424836800
996.37451,0.0424492210
995.08887,0.0424269885
993.80322,0.0424006432
992.51758,0.0423488729
991.23193,0.0422705747
989.94629,0.0421889797
988.66064,0.0421327017
987.37500,0.0421109125
986.08936,0.0420954525
984.80371,0.0420232974
983.51807,0.0418538935
982.23242,0.0416314676
980.94678,0.0414556600
979.66113,0.0413718000
978.37549,0.0413301475
977.08984,0.0412631035
975.80420,0.0411546864
974.51855,0.0410156883
973.23291,0.0408489481
971.94727,0.0406796336
970.66162,0.0405652486
969.37598,0.0405230187
968.09033,0.0404900275
966.80469,0.0404105298
965.51904,0.0403235182
964.23340,0.0402992330
962.94775,0.0403166153
961.66211,0.0402770489
960.37646,0.0401247293
959.09082,0.0398916416
957.80518,0.0396408364
956.51953,0.0394382551
955.23389,0.0393670499
953.94824,0.0394874103
952.66260,0.0397591740
951.37695,0.0400534682
950.09131,0.0402601548
948.80566,0.0403662957
947.52002,0.0404329486
946.23438,0.0405179895
944.94873,0.0406211279
943.66309,0.0406866185
942.37744,0.0406550393
941.09180,0.0405097194
939.80615,0.0402755439
938.52051,0.0399838462
937.23486,0.0396410078
935.94922,0.0392236933
934.66357,0.0387133546
933.37793,0.0381492339
932.09229,0.0376200788
930.80664,0.0371692814
929.52100,0.0367266685
928.23535,0.0361779816
926.94971,0.0354998447
925.66406,0.0347915813
924.37842,0.0341694839
923.09277,0.0336578526
921.80713,0.0331874825
920.52148,0.0326797999
919.23584,0.0321180448
917.95020,0.0315552093
916.66455,0.0310761537
915.37891,0.0307405237
914.09326,0.0305402689
912.80762,0.0304160919
911.52197,0.0303334724
910.23633,0.0303279776
908.95068,0.0304489397
907.66504,0.0306731779
906.37939,0.0309207477
905.09375,0.0311437808
903.80811,0.0313558318
902.52246,0.0315642059
901.23682,0.0317170545
899.95117,0.0317362435
