3999.64014,0.0073481463
3998.35449,0.0073701567
3997.06885,0.0073760538
3995.78320,0.0074417507
3994.49756,0.0075541828
3993.21191,0.0075658257
3991.92627,0.0073842159
3990.64063,0.0071095773
3989.35498,0.0069404165
3988.06934,0.0069819512
3986.78369,0.0071854452
3985.49805,0.0074504414
3984.21240,0.0077363630
3982.92676,0.0080409320
3981.64111,0.0083006984
3980.35547,0.0083808638
3979.06982,0.0082084648
3977.78418,0.0078670578
3976.49854,0.0075259209
3975.21289,0.0073030232
3973.92725,0.0072054737
3972.64160,0.0071511283
3971.35596,0.0070518241
3970.07031,0.0069358661
3968.78467,0.0069793207
3967.49902,0.0073227403
3966.21338,0.0078474209
3964.92773,0.0082356101
3963.64209,0.0082797222
3962.35645,0.0080665378
3961.07080,0.0078478698
3959.78516,0.0077899909
3958.49951,0.0078765219
3957.21387,0.0080106081
3955.92822,0.0081055956
3954.64258,0.0080663003
3953.35693,0.0077879881
3952.07129,0.0072789364
3950.78564,0.0067699011
3949.50000,0.0065810559
3948.21436,0.0067906994
3946.92871,0.0071029733
3945.64307,0.0071892873
3944.35742,0.0070436676
3943.07178,0.0068858936
3941.78613,0.0068623815
3940.50049,0.0069403374
3939.21484,0.0070243040
3937.92920,0.0070613208
3936.64355,0.0070353276
3935.35791,0.0069665890
3934.07227,0.0069254236
3932.78662,0.0069776890
3931.50098,0.0071099713
3930.21533,0.0072358465
3928.92969,0.0072796731
3927.64404,0.0072476128
3926.35840,0.0072370577
3925.07275,0.0073896400
3923.78711,0.0077406052
3922.50146,0.0080943340
3921.21582,0.0082088076
3919.93018,0.0081053851
3918.64453,0.0080407998
3917.35889,0.0081886007
3916.07324,0.0084027434
3914.78760,0.0083837947
3913.50195,0.0080426717
3912.21631,0.0075555262
3910.93066,0.0071552596
3909.64502,0.0070059947
3908.35938,0.0071893400
3907.07373,0.0076903300
3905.78809,0.0083295656
3904.50244,0.0087487185
3903.21680,0.0086631225
3901.93115,0.0082919654
3900.64551,0.0081532551
3899.35986,0.0083149998
3898.07422,0.0084065692
3896.78857,0.0082581146
3895.50293,0.0080454675
3894.21729,0.0079666544
3892.93164,0.0080728391
3891.64600,0.0082663987
3890.36035,0.0083624711
3889.07471,0.0083210152
3887.78906,0.0083527071
3886.50342,0.0086095715
3885.21777,0.0089205140
3883.93213,0.0089508221
3882.64648,0.0087008877
3881.36084,0.0085157407
3880.07520,0.0085470499
3878.78955,0.0085864952
3877.50391,0.0084402999
3876.21826,0.0081895776
3874.93262,0.0080021704
3873.64697,0.0079587186
3872.36133,0.0080418549
3871.07568,0.0081792632
3869.79004,0.0082762931
3868.50439,0.0082537616
3867.21875,0.0081390636
3865.93311,0.0080878725
3864.64746,0.0082359267
3863.36182,0.0085360426
3862.07617,0.0087484010
3860.79053,0.0087401075
3859.50488,0.0086336788
3858.21924,0.0085526742
3856.93359,0.0084690442
3855.64795,0.0083109103
3854.36230,0.0080996873
3853.07666,0.0079226270
3851.79102,0.0077165477
3850.50537,0.0073258732
3849.21973,0.0068512061
3847.93408,0.0064937063
3846.64844,0.0063907956
3845.36279,0.0066209524
3844.07715,0.0071705226
3842.79150,0.0078635793
3841.50586,0.0083546601
3840.22021,0.0083380621
3838.93457,0.0078794472
3837.64893,0.0075069312
3836.36328,0.0076889596
3835.07764,0.0081570260
3833.79199,0.0083106719
3832.50635,0.0079828175
3831.22070,0.0074541275
3829.93506,0.0070540076
3828.64941,0.0068801870
3827.36377,0.0068604620
3826.07813,0.0069254762
3824.79248,0.0070569809
3823.50684,0.0072599309
3822.22119,0.0075716199
3820.93555,0.0080243982
3819.64990,0.0084895538
3818.36426,0.0086751916
3817.07861,0.0084384000
3815.79297,0.0078797899
3814.50732,0.0072760661
3813.22168,0.0068949671
3811.93604,0.0067438725
3810.65039,0.0066705523
3809.36475,0.0065824753
3808.07910,0.0065134135
3806.79346,0.0065984279
3805.50781,0.0069332882
3804.22217,0.0073822155
3802.93652,0.0076679871
3801.65088,0.0075969608
3800.36523,0.0071949717
3799.07959,0.0067211050
3797.79395,0.0063910061
3796.50830,0.0062712324
3795.22266,0.0064256568
3793.93701,0.0068371897
3792.65137,0.0072966521
3791.36572,0.0075612157
3790.08008,0.0075689070
3788.79443,0.0074845972
3787.50879,0.0075523648
3786.22314,0.0078396462
3784.93750,0.0081374813
3783.65186,0.0081812935
3782.36621,0.0079719275
3781.08057,0.0077504874
3779.79492,0.0076972074
3778.50928,0.0077831382
3777.22363,0.0078272056
3775.93799,0.0076481211
3774.65234,0.0072018672
3773.36670,0.0066448185
3772.08105,0.0062890649
3770.79541,0.0063946573
3769.50977,0.0068837111
3768.22412,0.0073387465
3766.93848,0.0075032697
3765.65283,0.0075606881
3764.36719,0.0077356780
3763.08154,0.0079328306
3761.79590,0.0078802379
3760.51025,0.0074640033
3759.22461,0.0068846573
3757.93896,0.0065610306
3756.65332,0.0067416113
3755.36768,0.0072716703
3754.08203,0.0079029612
3752.79639,0.0085152127
3751.51074,0.0089577725
3750.22510,0.0089135384
3748.93945,0.0083201192
3747.65381,0.0077241100
3746.36816,0.0075912974
3745.08252,0.0079767266
3743.79688,0.0086403331
3742.51123,0.0091108009
3741.22559,0.0091341184
3739.93994,0.0088679353
3738.65430,0.0085084811
3737.36865,0.0081383791
3736.08301,0.0077869864
3734.79736,0.0074977130
3733.51172,0.0073168697
3732.22607,0.0072463490
3730.94043,0.0072949668
3729.65479,0.0075199679
3728.36914,0.0079674460
3727.08350,0.0085929893
3725.79785,0.0092186434
3724.51221,0.0096036671
3723.22656,0.0096731158
3721.94092,0.0095881848
3720.65527,0.0094977673
3719.36963,0.0093937730
3718.08398,0.0092440527
3716.79834,0.0090743229
3715.51270,0.0088624395
3714.22705,0.0085032014
3712.94141,0.0079568736
3711.65576,0.0074438574
3710.37012,0.0073770806
3709.08447,0.0077697770
3707.79883,0.0081303883
3706.51318,0.0082445545
3705.22754,0.0083339456
3703.94189,0.0086608250
3702.65625,0.0092269182
3701.37061,0.0096783824
3700.08496,0.0096165556
3698.79932,0.0091470191
3697.51367,0.0087540532
3696.22803,0.0086915120
3694.94238,0.0088117961
3693.65674,0.0088530341
3692.37109,0.0087484540
3691.08545,0.0086398050
3689.79980,0.0086632539
3688.51416,0.0087758712
3687.22852,0.0088227056
3685.94287,0.0087358812
3684.65723,0.0085263010
3683.37158,0.0082448171
3682.08594,0.0080366861
3680.80029,0.0081165405
3679.51465,0.0086011216
3678.22900,0.0093748337
3676.94336,0.0101385051
3675.65771,0.0105458284
3674.37207,0.0104746744
3673.08643,0.0103217997
3671.80078,0.0104871383
3670.51514,0.0108347517
3669.22949,0.0108903293
3667.94385,0.0104077486
3666.65820,0.0097739743
3665.37256,0.0093944343
3664.08691,0.0092480993
3662.80127,0.0091433441
3661.51563,0.0089765340
3660.22998,0.0087967124
3658.94434,0.0087406356
3657.65869,0.0089446381
3656.37305,0.0094328169
3655.08740,0.0099921050
3653.80176,0.0103362994
3652.51611,0.0104821529
3651.23047,0.0106996838
3649.94482,0.0111870784
3648.65918,0.0118524730
3647.37354,0.0124408072
3646.08789,0.0129009606
3644.80225,0.0132078119
3643.51660,0.0132117076
3642.23096,0.0129077863
3640.94531,0.0125498232
3639.65967,0.0124640623
3638.37402,0.0127128419
3637.08838,0.0130112655
3635.80273,0.0130629614
3634.51709,0.0129518686
3633.23145,0.0131269889
3631.94580,0.0139370393
3630.66016,0.0152308866
3629.37451,0.0164184161
3628.08887,0.0168750286
3626.80322,0.0166953783
3625.51758,0.0166636091
3624.23193,0.0171252452
3622.94629,0.0178590883
3621.66064,0.0184143260
3620.37500,0.0182718076
3619.08936,0.0172304083
3617.80371,0.0159002021
3616.51807,0.0151979942
3615.23242,0.0152335139
3613.94678,0.0155707821
3612.66113,0.0160465110
3611.37549,0.0168026146
3610.08984,0.0178726558
3608.80420,0.0190089960
3607.51855,0.0198707208
3606.23291,0.0202673711
3604.94727,0.0202991609
3603.66162,0.0202412512
3602.37598,0.0203536563
3601.09033,0.0208004955
3599.80469,0.0215292368
3598.51904,0.0221981481
3597.23340,0.0224414468
3595.94775,0.0222686343
3594.66211,0.0220397320
3593.37646,0.0220331401
3592.09082,0.0221187696
3590.80518,0.0219850484
3589.51953,0.0215854682
3588.23389,0.0212685373
3586.94824,0.0215016026
3585.66260,0.0221994314
3584.37695,0.0226508733
3583.09131,0.0226059314
3581.80566,0.0224763677
3580.52002,0.0225467067
3579.23438,0.0225825086
3577.94873,0.0222796686
3576.66309,0.0218405351
3575.37744,0.0216321815
3574.09180,0.0214534625
3572.80615,0.0208025053
3571.52051,0.0198436510
3570.23486,0.0195053779
3568.94922,0.0205506515
3567.66357,0.0226759911
3566.37793,0.0243092496
3565.09229,0.0239773840
3563.80664,0.0222588535
3562.52100,0.0207511019
3561.23535,0.0201960448
3559.94971,0.0204690471
3558.66406,0.0210798029
3557.37842,0.0214501433
3556.09277,0.0211867969
3554.80713,0.0203555282
3553.52148,0.0195196755
3552.23584,0.0193167068
3550.95020,0.0197820943
3549.66455,0.0202879310
3548.37891,0.0204353742
3547.09326,0.0206206795
3545.80762,0.0214803591
3544.52197,0.0229216591
3543.23633,0.0240602233
3541.95068,0.0243825410
3540.66504,0.0243331213
3539.37939,0.0245501176
3538.09375,0.0249557812
3536.80811,0.0248109046
3535.52246,0.0236784630
3534.23682,0.0221183877
3532.95117,0.0210915972
3531.66553,0.0208638292
3530.37988,0.0208575800
3529.09424,0.0203677379
3527.80859,0.0192467552
3526.52295,0.0180842057
3525.23730,0.0177331734
3523.95166,0.0184911937
3522.66602,0.0196542647
3521.38037,0.0201625545
3520.09473,0.0197477154
3518.80908,0.0190545153
3517.52344,0.0186748337
3516.23779,0.0185741298
3514.95215,0.0184499491
3513.66650,0.0182293933
3512.38086,0.0180014744
3511.09521,0.0176838823
3509.80957,0.0170120038
3508.52393,0.0158355758
3507.23828,0.0143915555
3505.95264,0.0131763238
3504.66699,0.0126127377
3503.38135,0.0128392568
3502.09570,0.0136293238
3500.81006,0.0144035434
3499.52441,0.0145888617
3498.23877,0.0140615916
3496.95313,0.0131554836
3495.66748,0.0123919277
3494.38184,0.0121832108
3493.09619,0.0126206512
3491.81055,0.0135039063
3490.52490,0.0147872204
3489.23926,0.0169540234
3487.95361,0.0201954748
3486.66797,0.0230331477
3485.38232,0.0229519214
3484.09668,0.0192134734
3482.81104,0.0140818330
3481.52539,0.0105043491
3480.23975,0.0093743047
3478.95410,0.0098200962
3477.66846,0.0112238405
3476.38281,0.0135303969
3475.09717,0.0160100088
3473.81152,0.0171360169
3472.52588,0.0160214528
3471.24023,0.0133795124
3469.95459,0.0108181909
3468.66895,0.0092951711
3467.38330,0.0084768841
3466.09766,0.0075949854
3464.81201,0.0066781761
3463.52637,0.0066386685
3462.24072,0.0080144042
3460.95508,0.0100471247
3459.66943,0.0112552140
3458.38379,0.0110218711
3457.09814,0.0103503773
3455.81250,0.0106872674
3454.52686,0.0120007526
3453.24121,0.0124668861
3451.95557,0.0103535838
3450.66992,0.0058667688
3449.38428,0.0009613810
3448.09863,-0.0022522863
3446.81299,-0.0029859606
3445.52734,-0.0023036329
3444.24170,-0.0021060926
3442.95605,-0.0031102698
3441.67041,-0.0040709982
3440.38477,-0.0033317069
3439.09912,-0.0007144343
3437.81348,0.0021090985
3436.52783,0.0029932091
3435.24219,0.0012089250
3433.95654,-0.0015763351
3432.67090,-0.0025489514
3431.38525,-0.0007042519
3430.09961,0.0024101618
3428.81396,0.0045317328
3427.52832,0.0042544208
3426.24268,0.0009587348
3424.95703,-0.0046950430
3423.67139,-0.0096995840
3422.38574,-0.0100267250
3421.10010,-0.0044635399
3419.81445,0.0037231988
3418.52881,0.0099787284
3417.24316,0.0125285611
3415.95752,0.0116875190
3414.67188,0.0080775348
3413.38623,0.0030957870
3412.10059,-0.0005802862
3410.81494,-0.0012834435
3409.52930,-0.0007522157
3408.24365,-0.0019751056
3406.95801,-0.0049379920
3405.67236,-0.0066888281
3404.38672,-0.0061627463
3403.10107,-0.0064496626
3401.81543,-0.0106381839
3400.52979,-0.0173358843
3399.24414,-0.0226637553
3397.95850,-0.0249668024
3396.67285,-0.0249928515
3395.38721,-0.0228212178
3394.10156,-0.0179431569
3392.81592,-0.0122452537
3391.53027,-0.0094801551
3390.24463,-0.0116137741
3388.95898,-0.0179614387
3387.67334,-0.0271705091
3386.38770,-0.0375319384
3385.10205,-0.0449794270
3383.81641,-0.0440196469
3382.53076,-0.0325074047
3381.24512,-0.0143847959
3379.95947,0.0030991239
3378.67383,0.0136205088
3377.38818,0.0143919308
3376.10254,0.0078510586
3374.81689,0.0003443940
3373.53125,-0.0028293671
3372.24561,-0.0017322466
3370.95996,-0.0010293514
3369.67432,-0.0051681176
3368.38867,-0.0146353003
3367.10303,-0.0256188028
3365.81738,-0.0323836394
3364.53174,-0.0311918091
3363.24609,-0.0231051948
3361.96045,-0.0132125737
3360.67480,-0.0074146963
3359.38916,-0.0096937111
3358.10352,-0.0199478902
3356.81787,-0.0328116678
3355.53223,-0.0404464975
3354.24658,-0.0390075222
3352.96094,-0.0313978866
3351.67529,-0.0231453478
3350.38965,-0.0169353429
3349.10400,-0.0124906050
3347.81836,-0.0096397875
3346.53271,-0.0095020374
3345.24707,-0.0129446648
3343.96143,-0.0190587509
3342.67578,-0.0255350433
3341.39014,-0.0297385100
3340.10449,-0.0297606494
3338.81885,-0.0255011637
3337.53320,-0.0189808048
3336.24756,-0.0127833765
3334.96191,-0.0084439572
3333.67627,-0.0065703331
3332.39063,-0.0078803431
3331.10498,-0.0127473809
3329.81934,-0.0191894397
3328.53369,-0.0234937109
3327.24805,-0.0232007112
3325.96240,-0.0187625438
3324.67676,-0.0124928197
3323.39111,-0.0070162551
3322.10547,-0.0047982302
3320.81982,-0.0072814813
3319.53418,-0.0131698325
3318.24854,-0.0188893583
3316.96289,-0.0221068431
3315.67725,-0.0235827696
3314.39160,-0.0247073639
3313.10596,-0.0245293994
3311.82031,-0.0214207135
3310.53467,-0.0164508466
3309.24902,-0.0131920325
3307.96338,-0.0141953314
3306.67773,-0.0185207110
3305.39209,-0.0233814809
3304.10645,-0.0276661757
3302.82080,-0.0325780101
3301.53516,-0.0389934182
3300.24951,-0.0455055870
3298.96387,-0.0494052917
3297.67822,-0.0492915101
3296.39258,-0.0456410088
3295.10693,-0.0400184765
3293.82129,-0.0341406018
3292.53564,-0.0296829063
3291.25000,-0.0276315399
3289.96436,-0.0286421999
3288.67871,-0.0335546695
3287.39307,-0.0415325984
3286.10742,-0.0489869267
3284.82178,-0.0520105325
3283.53613,-0.0495749637
3282.25049,-0.0430929884
3280.96484,-0.0341042317
3279.67920,-0.0243744142
3278.39355,-0.0174526721
3277.10791,-0.0169159248
3275.82227,-0.0224684794
3274.53662,-0.0299101006
3273.25098,-0.0356201455
3271.96533,-0.0396589749
3270.67969,-0.0438690260
3269.39404,-0.0479216091
3268.10840,-0.0488794819
3266.82275,-0.0452811457
3265.53711,-0.0394285060
3264.25146,-0.0346925333
3262.96582,-0.0319791362
3261.68018,-0.0306730345
3260.39453,-0.0307896230
3259.10889,-0.0321210511
3257.82324,-0.0326889493
3256.53760,-0.0302221309
3255.25195,-0.0255282111
3253.96631,-0.0226406083
3252.68066,-0.0248121656
3251.39502,-0.0305587873
3250.10938,-0.0349546745
3248.82373,-0.0352994241
3247.53809,-0.0345507488
3246.25244,-0.0379171185
3244.96680,-0.0465043001
3243.68115,-0.0562775023
3242.39551,-0.0630284548
3241.10986,-0.0653655827
3239.82422,-0.0631039515
3238.53857,-0.0559711270
3237.25293,-0.0456752144
3235.96729,-0.0364914723
3234.68164,-0.0321426354
3233.39600,-0.0334896296
3232.11035,-0.0394341759
3230.82471,-0.0478791818
3229.53906,-0.0555194616
3228.25342,-0.0591850393
3226.96777,-0.0580863170
3225.68213,-0.0539142787
3224.39648,-0.0487128161
3223.11084,-0.0437113829
3221.82520,-0.0397587158
3220.53955,-0.0373513661
3219.25391,-0.0360658690
3217.96826,-0.0351066403
3216.68262,-0.0346471258
3215.39697,-0.0355781242
3214.11133,-0.0375704989
3212.82568,-0.0385560915
3211.54004,-0.0370711833
3210.25439,-0.0343571119
3208.96875,-0.0333570875
3207.68311,-0.0354426838
3206.39746,-0.0389075130
3205.11182,-0.0411659218
3203.82617,-0.0414932147
3202.54053,-0.0411380418
3201.25488,-0.0411837660
3199.96924,-0.0412211083
3198.68359,-0.0406595953
3197.39795,-0.0401437134
3196.11230,-0.0406710096
3194.82666,-0.0419920348
3193.54102,-0.0431383662
3192.25537,-0.0438096374
3190.96973,-0.0440626331
3189.68408,-0.0432063825
3188.39844,-0.0404397547
3187.11279,-0.0363465585
3185.82715,-0.0326299816
3184.54150,-0.0301176608
3183.25586,-0.0280765072
3181.97021,-0.0257042050
3180.68457,-0.0236108657
3179.39893,-0.0233412497
3178.11328,-0.0257836375
3176.82764,-0.0302655939
3175.54199,-0.0350273661
3174.25635,-0.0383354127
3172.97070,-0.0392139927
3171.68506,-0.0377156772
3170.39941,-0.0347119421
3169.11377,-0.0312629230
3167.82813,-0.0278491732
3166.54248,-0.0242869873
3165.25684,-0.0204409976
3163.97119,-0.0168750416
3162.68555,-0.0147330482
3161.39990,-0.0149928052
3160.11426,-0.0176141746
3158.82861,-0.0212929621
3157.54297,-0.0242148675
3156.25732,-0.0253138524
3154.97168,-0.0247380789
3153.68604,-0.0231672414
3152.40039,-0.0211457890
3151.11475,-0.0191482268
3149.82910,-0.0177250225
3148.54346,-0.0171824414
3147.25781,-0.0173684191
3145.97217,-0.0177457985
3144.68652,-0.0175506845
3143.40088,-0.0161464699
3142.11523,-0.0137299895
3140.82959,-0.0114898086
3139.54395,-0.0107071875
3138.25830,-0.0117609845
3136.97266,-0.0139169488
3135.68701,-0.0158006977
3134.40137,-0.0162273236
3133.11572,-0.0151433246
3131.83008,-0.0137567231
3130.54443,-0.0132594267
3129.25879,-0.0135943340
3127.97314,-0.0139053650
3126.68750,-0.0137748299
3125.40186,-0.0133698853
3124.11621,-0.0126624601
3122.83057,-0.0112630092
3121.54492,-0.0091351159
3120.25928,-0.0069597568
3118.97363,-0.0056436402
3117.68799,-0.0055922777
3116.40234,-0.0064350739
3115.11670,-0.0073506138
3113.83105,-0.0077304384
3112.54541,-0.0075530582
3111.25977,-0.0071161930
3109.97412,-0.0066333576
3108.68848,-0.0061955648
3107.40283,-0.0058840159
3106.11719,-0.0056536561
3104.83154,-0.0051661218
3103.54590,-0.0039667152
3102.26025,-0.0019189781
3100.97461,0.0004666122
3099.68896,0.0022118322
3098.40332,0.0026093891
3097.11768,0.0019115567
3095.83203,0.0011235052
3094.54639,0.0010086523
3093.26074,0.0014500909
3091.97510,0.0018891970
3090.68945,0.0021303769
3089.40381,0.0024605850
3088.11816,0.0030943009
3086.83252,0.0038212487
3085.54688,0.0043045618
3084.26123,0.0045813564
3082.97559,0.0050318637
3081.68994,0.0058117509
3080.40430,0.0065790587
3079.11865,0.0069744801
3077.83301,0.0071954718
3076.54736,0.0077595790
3075.26172,0.0087291989
3073.97607,0.0094867088
3072.69043,0.0094443783
3071.40479,0.0087855384
3070.11914,0.0082892468
3068.83350,0.0084748510
3067.54785,0.0091588367
3066.26221,0.0098724738
3064.97656,0.0104403626
3063.69092,0.0109435786
3062.40527,0.0113238646
3061.11963,0.0113917822
3059.83398,0.0112050083
3058.54834,0.0111180246
3057.26270,0.0113580087
3055.97705,0.0117736319
3054.69141,0.0121219577
3053.40576,0.0124396347
3052.12012,0.0129503747
3050.83447,0.0136832306
3049.54883,0.0143714063
3048.26318,0.0147543065
3046.97754,0.0148718096
3045.69189,0.0150143169
3044.40625,0.0154283596
3043.12061,0.0161340591
3041.83496,0.0169632025
3040.54932,0.0176925920
3039.26367,0.0181491412
3037.97803,0.0182796624
3036.69238,0.0181916002
3035.40674,0.0181133281
3034.12109,0.0182466693
3032.83545,0.0186247621
3031.54980,0.0191301182
3030.26416,0.0196492802
3028.97852,0.0201505423
3027.69287,0.0206187796
3026.40723,0.0210231226
3025.12158,0.0213675816
3023.83594,0.0216459483
3022.55029,0.0217425786
3021.26465,0.0215579625
3019.97900,0.0212814212
3018.69336,0.0213134754
3017.40771,0.0218010955
3016.12207,0.0224435460
3014.83643,0.0228769910
3013.55078,0.0230607186
3012.26514,0.0231468789
3010.97949,0.0231730063
3009.69385,0.0230983626
3008.40820,0.0230111480
3007.12256,0.0230856147
3005.83691,0.0233772676
3004.55127,0.0237989556
3003.26563,0.0242737439
3001.97998,0.0248125494
3000.69434,0.0254419111
2999.40869,0.0261134151
2998.12305,0.0266853962
2996.83740,0.0269842166
2995.55176,0.0269224904
2994.26611,0.0265965220
2992.98047,0.0262476709
2991.69482,0.0260991473
2990.40918,0.0262202285
2989.12354,0.0265181214
2987.83789,0.0268206000
2986.55225,0.0269940495
2985.26660,0.0270552337
2983.98096,0.0271659978
2982.69531,0.0274491832
2981.40967,0.0278169643
2980.12402,0.0280531589
2978.83838,0.0280761644
2977.55273,0.0280364808
2976.26709,0.0281361192
2974.98145,0.0284231137
2973.69580,0.0287790298
2972.41016,0.0290464964
2971.12451,0.0291326027
2969.83887,0.0290336795
2968.55322,0.0287890993
2967.26758,0.0284388103
2965.98193,0.0280570798
2964.69629,0.0277976468
2963.41064,0.0277970936
2962.12500,0.0280035418
2960.83936,0.0281935986
2959.55371,0.0282021314
2958.26807,0.0280747823
2956.98242,0.0279671270
2955.69678,0.0279667377
2954.41113,0.0280529670
2953.12549,0.0281686578
2951.83984,0.0282742046
2950.55420,0.0283580888
2949.26855,0.0284297764
2947.98291,0.0284957252
2946.69727,0.0285300817
2945.41162,0.0284759570
2944.12598,0.0283004530
2942.84033,0.0280426424
2941.55469,0.0277749356
2940.26904,0.0275108181
2938.98340,0.0271960068
2937.69775,0.0268095583
2936.41211,0.0264046341
2935.12646,0.0260033589
2933.84082,0.0255242344
2932.55518,0.0248946454
2931.26953,0.0241873041
2929.98389,0.0235651713
2928.69824,0.0231174454
2927.41260,0.0228084512
2926.12695,0.0225802716
2924.84131,0.0224661734
2923.55566,0.0225903057
2922.27002,0.0230417717
2920.98438,0.0237532910
2919.69873,0.0245485008
2918.41309,0.0253138840
2917.12744,0.0260491204
2915.84180,0.0267351661
2914.55615,0.0272643063
2913.27051,0.0275606252
2911.98486,0.0276890360
2910.69922,0.0277924873
2909.41357,0.0279795807
2908.12793,0.0282934345
2906.84229,0.0287149176
2905.55664,0.0291602332
2904.27100,0.0295243431
2902.98535,0.0297510196
2901.69971,0.0298417043
2900.41406,0.0298110973
2899.12842,0.0296846572
2897.84277,0.0295374505
2896.55713,0.0294719264
2895.27148,0.0295372810
2893.98584,0.0297039486
2892.70020,0.0299232863
2891.41455,0.0301664267
2890.12891,0.0303870793
2888.84326,0.0305044204
2887.55762,0.0304800142
2886.27197,0.0303930528
2884.98633,0.0303785857
2883.70068,0.0304900054
2882.41504,0.0306538157
2881.12939,0.0307633616
2879.84375,0.0307751205
2878.55811,0.0307025164
2877.27246,0.0305515192
2875.98682,0.0303121004
2874.70117,0.0300149787
2873.41553,0.0297483560
2872.12988,0.0295753274
2870.84424,0.0294554979
2869.55859,0.0293024965
2868.27295,0.0291062780
2866.98730,0.0289340056
2865.70166,0.0288059413
2864.41602,0.0286452062
2863.13037,0.0283786748
2861.84473,0.0280236993
2860.55908,0.0276457258
2859.27344,0.0272759087
2857.98779,0.0269121081
2856.70215,0.0265612416
2855.41650,0.0262505040
2854.13086,0.0260250438
2852.84521,0.0259700771
2851.55957,0.0261911117
2850.27393,0.0267107487
2848.98828,0.0273947529
2847.70264,0.0280402936
2846.41699,0.0285504274
2845.13135,0.0289712492
2843.84570,0.0293620955
2842.56006,0.0296984892
2841.27441,0.0299215950
2839.98877,0.0300235245
2838.70313,0.0300474036
2837.41748,0.0300403051
2836.13184,0.0300393309
2834.84619,0.0300782826
2833.56055,0.0301734190
2832.27490,0.0303081330
2830.98926,0.0304449126
2829.70361,0.0305472966
2828.41797,0.0305935945
2827.13232,0.0305921230
2825.84668,0.0305842068
2824.56104,0.0306083169
2823.27539,0.0306458995
2821.98975,0.0306188762
2820.70410,0.0304613747
2819.41846,0.0301947054
2818.13281,0.0299234521
2816.84717,0.0297515467
2815.56152,0.0297051128
2814.27588,0.0297308676
2812.99023,0.0297596138
2811.70459,0.0297565069
2810.41895,0.0297175590
2809.13330,0.0296459962
2807.84766,0.0295557939
2806.56201,0.0294806268
2805.27637,0.0294449702
2803.99072,0.0294228084
2802.70508,0.0293599628
2801.41943,0.0292382240
2800.13379,0.0290966220
2798.84814,0.0289842840
2797.56250,0.0289117862
2796.27686,0.0288545452
2794.99121,0.0288001895
2793.70557,0.0287868306
2792.41992,0.0288724173
2791.13428,0.0290389415
2789.84863,0.0291576870
2788.56299,0.0291017406
2787.27734,0.0288842898
2785.99170,0.0286294185
2784.70605,0.0284270942
2783.42041,0.0282713324
2782.13477,0.0281235520
2780.84912,0.0279664341
2779.56348,0.0278009865
2778.27783,0.0276502762
2776.99219,0.0275658425
2775.70654,0.0275832433
2774.42090,0.0276647080
2773.13525,0.0277182031
2771.84961,0.0276825260
2770.56396,0.0275788307
2769.27832,0.0274811685
2767.99268,0.0274392832
2766.70703,0.0274372697
2765.42139,0.0274244212
2764.13574,0.0273797810
2762.85010,0.0273329131
2761.56445,0.0273290817
2760.27881,0.0273910575
2758.99316,0.0275107082
2757.70752,0.0276519060
2756.42188,0.0277535245
2755.13623,0.0277538840
2753.85059,0.0276471302
2752.56494,0.0275217649
2751.27930,0.0275095459
2749.99365,0.0276654810
2748.70801,0.0278998781
2747.42236,0.0280538220
2746.13672,0.0280436613
2744.85107,0.0279127695
2743.56543,0.0277607534
2742.27979,0.0276527051
2740.99414,0.0276024118
2739.70850,0.0276125632
2738.42285,0.0276959669
2737.13721,0.0278465524
2735.85156,0.0280111097
2734.56592,0.0281255413
2733.28027,0.0281845387
2731.99463,0.0282422174
2730.70898,0.0283242427
2729.42334,0.0283713005
2728.13770,0.0282990970
2726.85205,0.0280924831
2725.56641,0.0278160274
2724.28076,0.0275489613
2722.99512,0.0273423716
2721.70947,0.0272306520
2720.42383,0.0272409320
2719.13818,0.0273673479
2717.85254,0.0275472756
2716.56689,0.0276920758
2715.28125,0.0277472325
2713.99561,0.0277232807
2712.70996,0.0276695602
2711.42432,0.0276267454
2710.13867,0.0276008174
2708.85303,0.0275766533
2707.56738,0.0275554713
2706.28174,0.0275611207
2704.99609,0.0275983065
2703.71045,0.0276311301
2702.42480,0.0276338905
2701.13916,0.0276319347
2699.85352,0.0276529510
2698.56787,0.0276663601
2697.28223,0.0276167337
2695.99658,0.0275013857
2694.71094,0.0273789819
2693.42529,0.0273247305
2692.13965,0.0273869503
2690.85400,0.0275475793
2689.56836,0.0277102850
2688.28271,0.0277850386
2686.99707,0.0277917162
2685.71143,0.0278219059
2684.42578,0.0279021170
2683.14014,0.0279687531
2681.85449,0.0279817842
2680.56885,0.0279849041
2679.28320,0.0280405674
2677.99756,0.0281659216
2676.71191,0.0283397418
2675.42627,0.0285226740
2674.14063,0.0286679380
2672.85498,0.0287492685
2671.56934,0.0287728626
2670.28369,0.0287462529
2668.99805,0.0286704767
2667.71240,0.0285850950
2666.42676,0.0285686459
2665.14111,0.0286548287
2663.85547,0.0287892912
2662.56982,0.0289020464
2661.28418,0.0289830659
2659.99854,0.0290566534
2658.71289,0.0291305296
2657.42725,0.0292011239
2656.14160,0.0292662457
2654.85596,0.0293019973
2653.57031,0.0292766877
2652.28467,0.0292136688
2650.99902,0.0291983280
2649.71338,0.0292857699
2648.42773,0.0294357482
2647.14209,0.0295650773
2645.85645,0.0296400618
2644.57080,0.0296918079
2643.28516,0.0297608841
2641.99951,0.0298472214
2640.71387,0.0299109723
2639.42822,0.0299140755
2638.14258,0.0298680179
2636.85693,0.0298354942
2635.57129,0.0298752002
2634.28564,0.0299774799
2633.00000,0.0300641358
2631.71436,0.0300651323
2630.42871,0.0300053265
2629.14307,0.0299972817
2627.85742,0.0301226154
2626.57178,0.0303259231
2625.28613,0.0304614045
2624.00049,0.0304462742
2622.71484,0.0303383581
2621.42920,0.0302577857
2620.14355,0.0302605033
2618.85791,0.0302967802
2617.57227,0.0302715506
2616.28662,0.0301341824
2615.00098,0.0299341567
2613.71533,0.0297934618
2612.42969,0.0298095960
2611.14404,0.0299696848
2609.85840,0.0301622655
2608.57275,0.0302741881
2607.28711,0.0302769598
2606.00146,0.0302298386
2604.71582,0.0302082170
2603.43018,0.0302287284
2602.14453,0.0302411597
2600.85889,0.0301924814
2599.57324,0.0300791394
2598.28760,0.0299281627
2597.00195,0.0297560934
2595.71631,0.0295774899
2594.43066,0.0294374339
2593.14502,0.0293868035
2591.85938,0.0294244997
2590.57373,0.0294863023
2589.28809,0.0294906255
2588.00244,0.0293897670
2586.71680,0.0292036142
2585.43115,0.0290260725
2584.14551,0.0289626457
2582.85986,0.0290265419
2581.57422,0.0291077197
2580.28857,0.0290787965
2579.00293,0.0289236009
2577.71729,0.0287431553
2576.43164,0.0286444332
2575.14600,0.0286378805
2573.86035,0.0286460631
2572.57471,0.0286084898
2571.28906,0.0285565108
2570.00342,0.0285581965
2568.71777,0.0285999160
2567.43213,0.0285790712
2566.14648,0.0284324307
2564.86084,0.0282317717
2563.57520,0.0281138327
2562.28955,0.0281400420
2561.00391,0.0282519944
2559.71826,0.0283415373
2558.43262,0.0283393282
2557.14697,0.0282485429
2555.86133,0.0281196330
2554.57568,0.0280002579
2553.29004,0.0279021971
2552.00439,0.0278148688
2550.71875,0.0277368259
2549.43311,0.0276794937
2548.14746,0.0276440959
2546.86182,0.0276106093
2545.57617,0.0275561325
2544.29053,0.0274757110
2543.00488,0.0273826215
2541.71924,0.0273008794
2540.43359,0.0272511262
2539.14795,0.0272312555
2537.86230,0.0272059012
2536.57666,0.0271320492
2535.29102,0.0270021744
2534.00537,0.0268531479
2532.71973,0.0267232433
2531.43408,0.0266091544
2530.14844,0.0264736861
2528.86279,0.0262901317
2527.57715,0.0260668769
2526.29150,0.0258300286
2525.00586,0.0256004501
2523.72021,0.0253934953
2522.43457,0.0252234265
2521.14893,0.0250866897
2519.86328,0.0249509830
2518.57764,0.0247872006
2517.29199,0.0246157777
2516.00635,0.0244970899
2514.72070,0.0244655944
2513.43506,0.0244803298
2512.14941,0.0244588293
2510.86377,0.0243589953
2509.57813,0.0242207218
2508.29248,0.0241178218
2507.00684,0.0240788553
2505.72119,0.0240669269
2504.43555,0.0240312777
2503.14990,0.0239510145
2501.86426,0.0238260534
2500.57861,0.0236628558
2499.29297,0.0234833527
2498.00732,0.0233221427
2496.72168,0.0231961086
2495.43604,0.0230917837
2494.15039,0.0229896922
2492.86475,0.0228824466
2491.57910,0.0227675308
2490.29346,0.0226418190
2489.00781,0.0225063544
2487.72217,0.0223651286
2486.43652,0.0222294815
2485.15088,0.0221302118
2483.86523,0.0221028905
2482.57959,0.0221379474
2481.29395,0.0221601184
2480.00830,0.0220839065
2478.72266,0.0218974333
2477.43701,0.0216743294
2476.15137,0.0214982312
2474.86572,0.0213831626
2473.58008,0.0212830789
2472.29443,0.0211704075
2471.00879,0.0210753735
2469.72314,0.0210327692
2468.43750,0.0210151635
2467.15186,0.0209520515
2465.86621,0.0208165981
2464.58057,0.0206640046
2463.29492,0.0205736943
2462.00928,0.0205665287
2460.72363,0.0205894634
2459.43799,0.0205688365
2458.15234,0.0204683691
2456.86670,0.0203093048
2455.58105,0.0201514382
2454.29541,0.0200475156
2453.00977,0.0200056620
2451.72412,0.0199973397
2450.43848,0.0199966375
2449.15283,0.0199893191
2447.86719,0.0199476853
2446.58154,0.0198384225
2445.29590,0.0196745489
2444.01025,0.0195200276
2442.72461,0.0194235928
2441.43896,0.0193728674
2440.15332,0.0193277486
2438.86768,0.0192666426
2437.58203,0.0191846024
2436.29639,0.0190838091
2435.01074,0.0189869031
2433.72510,0.0189329013
2432.43945,0.0189340096
2431.15381,0.0189493969
2429.86816,0.0189208966
2428.58252,0.0188317876
2427.29688,0.0187144242
2426.01123,0.0186070111
2424.72559,0.0185189638
2423.43994,0.0184427369
2422.15430,0.0183817837
2420.86865,0.0183487833
2419.58301,0.0183417369
2418.29736,0.0183366854
2417.01172,0.0183049049
2415.72607,0.0182379223
2414.44043,0.0181556735
2413.15479,0.0180877429
2411.86914,0.0180438105
2410.58350,0.0180074908
2409.29785,0.0179620832
2408.01221,0.0179056469
2406.72656,0.0178379435
2405.44092,0.0177570637
2404.15527,0.0176794883
2402.86963,0.0176379420
2401.58398,0.0176388323
2400.29834,0.0176406391
2399.01270,0.0175935701
2397.72705,0.0174885616
2396.44141,0.0173544269
2395.15576,0.0172200911
2393.87012,0.0170982908
2392.58447,0.0169994328
2391.29883,0.0169413183
2390.01318,0.0169390570
2388.72754,0.0169959329
2387.44189,0.0171116460
2386.15625,0.0172964539
2384.87061,0.0175693110
2383.58496,0.0179543141
2382.29932,0.0184846297
2381.01367,0.0191949923
2379.72803,0.0200812966
2378.44238,0.0210710000
2377.15674,0.0220670477
2375.87109,0.0230364762
2374.58545,0.0240380615
2373.29980,0.0251512807
2372.01416,0.0263970699
2370.72852,0.0277252961
2369.44287,0.0290562660
2368.15723,0.0303501263
2366.87158,0.0316480845
2365.58594,0.0329592042
2364.30029,0.0340493582
2363.01465,0.0345117226
2361.72900,0.0342373699
2360.44336,0.0336859636
2359.15771,0.0334093943
2357.87207,0.0333540998
2356.58643,0.0329472497
2355.30078,0.0318736993
2354.01514,0.0304032639
2352.72949,0.0289328992
2351.44385,0.0276141390
2350.15820,0.0264954772
2348.87256,0.0257084817
2347.58691,0.0254345555
2346.30127,0.0257969256
2345.01563,0.0267197788
2343.72998,0.0278027803
2342.44434,0.0285030175
2341.15869,0.0285713281
2339.87305,0.0281388536
2338.58740,0.0274925306
2337.30176,0.0269089676
2336.01611,0.0265430249
2334.73047,0.0263768248
2333.44482,0.0262969248
2332.15918,0.0262361486
2330.87354,0.0262197610
2329.58789,0.0262525361
2328.30225,0.0261927880
2327.01660,0.0258378591
2325.73096,0.0251484290
2324.44531,0.0243174341
2323.15967,0.0236010551
2321.87402,0.0231033321
2320.58838,0.0227274597
2319.30273,0.0223219637
2318.01709,0.0218452457
2316.73145,0.0213796292
2315.44580,0.0210154615
2314.16016,0.0207473543
2312.87451,0.0204822905
2311.58887,0.0201357100
2310.30322,0.0197056979
2309.01758,0.0192516521
2307.73193,0.0188252181
2306.44629,0.0184338260
2305.16064,0.0180588402
2303.87500,0.0176859051
2302.58936,0.0173116736
2301.30371,0.0169302020
2300.01807,0.0165362377
2298.73242,0.0161476526
2297.44678,0.0157997087
2296.16113,0.0155036552
2294.87549,0.0152342906
2293.58984,0.0149761867
2292.30420,0.0147606535
2291.01855,0.0146252979
2289.73291,0.0145442644
2288.44727,0.0144333541
2287.16162,0.0142314909
2285.87598,0.0139629422
2284.59033,0.0137128318
2283.30469,0.0135507211
2282.01904,0.0134824906
2280.73340,0.0134647340
2279.44775,0.0134502621
2278.16211,0.0134207057
2276.87646,0.0133897103
2275.59082,0.0133787105
2274.30518,0.0133918999
2273.01953,0.0134189706
2271.73389,0.0134562422
2270.44824,0.0135009428
2269.16260,0.0135263912
2267.87695,0.0134927444
2266.59131,0.0133950496
2265.30566,0.0132758114
2264.02002,0.0131823011
2262.73438,0.0131321922
2261.44873,0.0131170647
2260.16309,0.0131080737
2258.87744,0.0130662955
2257.59180,0.0129792318
2256.30615,0.0128842657
2255.02051,0.0128322989
2253.73486,0.0128353108
2252.44922,0.0128686139
2251.16357,0.0129063716
2249.87793,0.0129364803
2248.59229,0.0129534146
2247.30664,0.0129562160
2246.02100,0.0129474942
2244.73535,0.0129235191
2243.44971,0.0128682936
2242.16406,0.0127658872
2240.87842,0.0126239033
2239.59277,0.0124890506
2238.30713,0.0124221332
2237.02148,0.0124364905
2235.73584,0.0124664856
2234.45020,0.0124242911
2233.16455,0.0122939479
2231.87891,0.0121512916
2230.59326,0.0120849060
2229.30762,0.0121165002
2228.02197,0.0121994792
2226.73633,0.0122765601
2225.45068,0.0123200715
2224.16504,0.0123272361
2222.87939,0.0123025766
2221.59375,0.0122545119
2220.30811,0.0121975606
2219.02246,0.0121508399
2217.73682,0.0121345753
2216.45117,0.0121567221
2215.16553,0.0121913841
2213.87988,0.0121864323
2212.59424,0.0121209994
2211.30859,0.0120380903
2210.02295,0.0119932229
2208.73730,0.0119871292
2207.45166,0.0119862491
2206.16602,0.0119955903
2204.88037,0.0120581575
2203.59473,0.0121710710
2202.30908,0.0122478819
2201.02344,0.0121981744
2199.73779,0.0120322341
2198.45215,0.0118605606
2197.16650,0.0117842183
2195.88086,0.0118047250
2194.59521,0.0118518351
2193.30957,0.0118766557
2192.02393,0.0118818432
2190.73828,0.0118739158
2189.45264,0.0118340654
2188.16699,0.0117520094
2186.88135,0.0116545195
2185.59570,0.0115827853
2184.31006,0.0115639102
2183.02441,0.0116144232
2181.73877,0.0117368763
2180.45313,0.0118886810
2179.16748,0.0119863553
2177.88184,0.0119739026
2176.59619,0.0118818702
2175.31055,0.0117956027
2174.02490,0.0117721697
2172.73926,0.0118092736
2171.45361,0.0118812053
2170.16797,0.0119676497
2168.88232,0.0120443711
2167.59668,0.0120758563
2166.31104,0.0120428810
2165.02539,0.0119687412
2163.73975,0.0119032878
2162.45410,0.0118814446
2161.16846,0.0119046709
2159.88281,0.0119598005
2158.59717,0.0120424544
2157.31152,0.0121555785
2156.02588,0.0122930165
2154.74023,0.0124283936
2153.45459,0.0125250705
2152.16895,0.0125545403
2150.88330,0.0125154275
2149.59766,0.0124392882
2148.31201,0.0123752281
2147.02637,0.0123634022
2145.74072,0.0124117453
2144.45508,0.0124924611
2143.16943,0.0125622675
2141.88379,0.0125932833
2140.59814,0.0125888335
2139.31250,0.0125679700
2138.02686,0.0125410045
2136.74121,0.0125093786
2135.45557,0.0124841221
2134.16992,0.0124874255
2132.88428,0.0125337308
2131.59863,0.0126143619
2130.31299,0.0127003938
2129.02734,0.0127582634
2127.74170,0.0127748717
2126.45605,0.0127724195
2125.17041,0.0127854813
2123.88477,0.0128202476
2122.59912,0.0128538422
2121.31348,0.0128803458
2120.02783,0.0129305078
2118.74219,0.0130250556
2117.45654,0.0131317126
2116.17090,0.0131999133
2114.88525,0.0132257715
2113.59961,0.0132546211
2112.31396,0.0133212134
2111.02832,0.0134193711
2109.74268,0.0135256965
2108.45703,0.0136244632
2107.17139,0.0137063926
2105.88574,0.0137693668
2104.60010,0.0138220070
2103.31445,0.0138659971
2102.02881,0.0138853472
2100.74316,0.0138759390
2099.45752,0.0138756428
2098.17188,0.0139286462
2096.88623,0.0140242158
2095.60059,0.0141060585
2094.31494,0.0141415466
2093.02930,0.0141555332
2091.74365,0.0141920941
2090.45801,0.0142671485
2089.17236,0.0143566644
2087.88672,0.0144179929
2086.60107,0.0144241750
2085.31543,0.0143931601
2084.02979,0.0143816555
2082.74414,0.0144403130
2081.45850,0.0145757990
2080.17285,0.0147557808
2078.88721,0.0149348723
2077.60156,0.0150679667
2076.31592,0.0151240360
2075.03027,0.0151193719
2073.74463,0.0151196402
2072.45898,0.0151770571
2071.17334,0.0152663840
2069.88770,0.0153197711
2068.60205,0.0153227719
2067.31641,0.0153375221
2066.03076,0.0154214380
2064.74512,0.0155608812
2063.45947,0.0157064609
2062.17383,0.0158416964
2060.88818,0.0159799848
2059.60254,0.0161123518
2058.31689,0.0162002333
2057.03125,0.0162172690
2055.74561,0.0161798149
2054.45996,0.0161321238
2053.17432,0.0161148775
2051.88867,0.0161421988
2050.60303,0.0162021685
2049.31738,0.0162798297
2048.03174,0.0163788740
2046.74609,0.0165100470
2045.46045,0.0166603010
2044.17480,0.0167876557
2042.88916,0.0168527476
2041.60352,0.0168515109
2040.31787,0.0168145373
2039.03223,0.0167811438
2037.74658,0.0167739075
2036.46094,0.0167895667
2035.17529,0.0168133266
2033.88965,0.0168477427
2032.60400,0.0169224497
2031.31836,0.0170625895
2030.03271,0.0172492601
2028.74707,0.0174255334
2027.46143,0.0175484214
2026.17578,0.0176263768
2024.89014,0.0176983606
2023.60449,0.0177852176
2022.31885,0.0178690962
2021.03320,0.0179228298
2019.74756,0.0179445464
2018.46191,0.0179535300
2017.17627,0.0179577116
2015.89063,0.0179394223
2014.60498,0.0178856850
2013.31934,0.0178216249
2012.03369,0.0177968405
2010.74805,0.0178321712
2009.46240,0.0178905670
2008.17676,0.0179152768
2006.89111,0.0178931560
2005.60547,0.0178593043
2004.31982,0.0178409368
2003.03418,0.0178302564
2001.74854,0.0178191178
2000.46289,0.0178275052
1999.17725,0.0178759750
1997.89160,0.0179519914
1996.60596,0.0180268902
1995.32031,0.0180916823
1994.03467,0.0181521382
1992.74902,0.0181978364
1991.46338,0.0182031542
1990.17773,0.0181687940
1988.89209,0.0181375630
1987.60645,0.0181484949
1986.32080,0.0181944054
1985.03516,0.0182388425
1983.74951,0.0182594117
1982.46387,0.0182608161
1981.17822,0.0182544459
1979.89258,0.0182484780
1978.60693,0.0182504244
1977.32129,0.0182580352
1976.03564,0.0182518270
1974.75000,0.0182187576
1973.46436,0.0181717332
1972.17871,0.0181255806
1970.89307,0.0180691499
1969.60742,0.0179889537
1968.32178,0.0179107189
1967.03613,0.0178813431
1965.75049,0.0179044865
1964.46484,0.0179299787
1963.17920,0.0179237742
1961.89355,0.0179108270
1960.60791,0.0179310050
1959.32227,0.0179825332
1958.03662,0.0180257317
1956.75098,0.0180243570
1955.46533,0.0179644022
1954.17969,0.0178498924
1952.89404,0.0177119244
1951.60840,0.0176043250
1950.32275,0.0175587162
1949.03711,0.0175528433
1947.75146,0.0175523832
1946.46582,0.0175648909
1945.18018,0.0176176708
1943.89453,0.0176931843
1942.60889,0.0177268349
1941.32324,0.0176817272
1940.03760,0.0175885037
1938.75195,0.0174922533
1937.46631,0.0174056459
1936.18066,0.0173292365
1934.89502,0.0172737725
1933.60938,0.0172440093
1932.32373,0.0172196887
1931.03809,0.0171712115
1929.75244,0.0170933362
1928.46680,0.0170122460
1927.18115,0.0169668347
1925.89551,0.0169851650
1924.60986,0.0170672201
1923.32422,0.0171716958
1922.03857,0.0172322392
1920.75293,0.0172131453
1919.46729,0.0171296597
1918.18164,0.0170121379
1916.89600,0.0168871395
1915.61035,0.0167841054
1914.32471,0.0167150423
1913.03906,0.0166561045
1911.75342,0.0165752545
1910.46777,0.0164696071
1909.18213,0.0163616706
1907.89648,0.0162678156
1906.61084,0.0161923878
1905.32520,0.0161356963
1904.03955,0.0160850324
1902.75391,0.0160155185
1901.46826,0.0159198586
1900.18262,0.0158204325
1898.89697,0.0157388560
1897.61133,0.0156735815
1896.32568,0.0156169068
1895.04004,0.0155712115
1893.75439,0.0155384783
1892.46875,0.0155107658
1891.18311,0.0154824350
1889.89746,0.0154628539
1888.61182,0.0154632572
1887.32617,0.0154665029
1886.04053,0.0154331336
1884.75488,0.0153452205
1883.46924,0.0152335400
1882.18359,0.0151467910
1880.89795,0.0150934001
1879.61230,0.0150312521
1878.32666,0.0149218775
1877.04102,0.0147797763
1875.75537,0.0146623533
1874.46973,0.0146181770
1873.18408,0.0146478945
1871.89844,0.0147129605
1870.61279,0.0147686619
1869.32715,0.0147779547
1868.04150,0.0147176990
1866.75586,0.0146110021
1865.47021,0.0145259015
1864.18457,0.0145078367
1862.89893,0.0145421503
1861.61328,0.0145724528
1860.32764,0.0145433815
1859.04199,0.0144375823
1857.75635,0.0142868645
1856.47070,0.0141495699
1855.18506,0.0140695870
1853.89941,0.0140450699
1852.61377,0.0140394820
1851.32813,0.0140260598
1850.04248,0.0140079074
1848.75684,0.0139912516
1847.47119,0.0139579168
1846.18555,0.0138898361
1844.89990,0.0138160214
1843.61426,0.0138008976
1842.32861,0.0138442162
1841.04297,0.0138678672
1839.75732,0.0138339261
1838.47168,0.0137767410
1837.18604,0.0137377856
1835.90039,0.0137128318
1834.61475,0.0136760706
1833.32910,0.0136368284
1832.04346,0.0136373388
1830.75781,0.0136991525
1829.47217,0.0137810977
1828.18652,0.0138060553
1826.90088,0.0137495408
1825.61523,0.0136485826
1824.32959,0.0135447904
1823.04395,0.0134610487
1821.75830,0.0134061035
1820.47266,0.0133794062
1819.18701,0.0133707570
1817.90137,0.0133698210
1816.61572,0.0133783910
1815.33008,0.0133990552
1814.04443,0.0134156337
1812.75879,0.0134039670
1811.47314,0.0133575685
1810.18750,0.0132850194
1808.90186,0.0131932152
1807.61621,0.0130930012
1806.33057,0.0130120926
1805.04492,0.0129806986
1803.75928,0.0130107328
1802.47363,0.0130919330
1801.18799,0.0131965503
1799.90234,0.0132896900
1798.61670,0.0133554870
1797.33105,0.0134086395
1796.04541,0.0134732518
1794.75977,0.0135710174
1793.47412,0.0137180686
1792.18848,0.0139008220
1790.90283,0.0140609508
1789.61719,0.0141693335
1788.33154,0.0142734339
1787.04590,0.0144325504
1785.76025,0.0146669056
1784.47461,0.0149456700
1783.18896,0.0152159538
1781.90332,0.0154674137
1780.61768,0.0157401972
1779.33203,0.0160596743
1778.04639,0.0164020732
1776.76074,0.0167479720
1775.47510,0.0171284750
1774.18945,0.0176192857
1772.90381,0.0183148682
1771.61816,0.0192256216
1770.33252,0.0201862548
1769.04688,0.0210601836
1767.76123,0.0218986832
1766.47559,0.0227803793
1765.18994,0.0237173922
1763.90430,0.0247637406
1762.61865,0.0260625351
1761.33301,0.0276489258
1760.04736,0.0293110516
1758.76172,0.0309183281
1757.47607,0.0326177590
1756.19043,0.0344887450
1754.90479,0.0363646895
1753.61914,0.0381659344
1752.33350,0.0401237346
1751.04785,0.0425733477
1749.76221,0.0455855951
1748.47656,0.0487807803
1747.19092,0.0517603643
1745.90527,0.0545411147
1744.61963,0.0573272295
1743.33398,0.0602157190
1742.04834,0.0632312596
1740.76270,0.0664457157
1739.47705,0.0697656572
1738.19141,0.0727473199
1736.90576,0.0751431137
1735.62012,0.0773970857
1734.33447,0.0802937746
1733.04883,0.0838362947
1731.76318,0.0868512392
1730.47754,0.0888928026
1729.19189,0.0904373825
1727.90625,0.0917416513
1726.62061,0.0928055346
1725.33496,0.0936607793
1724.04932,0.0943570733
1722.76367,0.0948647186
1721.47803,0.0951241851
1720.19238,0.0951061770
1718.90674,0.0947615802
1717.62109,0.0939623639
1716.33545,0.0926452652
1715.04980,0.0911143795
1713.76416,0.0897303149
1712.47852,0.0884867460
1711.19287,0.0871909559
1709.90723,0.0857266635
1708.62158,0.0840936080
1707.33594,0.0822525918
1706.05029,0.0800967440
1704.76465,0.0777583867
1703.47900,0.0756174698
1702.19336,0.0737297460
1700.90771,0.0716973245
1699.62207,0.0692602620
1698.33643,0.0667945668
1697.05078,0.0645221919
1695.76514,0.0620388947
1694.47949,0.0593275279
1693.19385,0.0568858199
1691.90820,0.0548390225
1690.62256,0.0529200993
1689.33691,0.0509934835
1688.05127,0.0492382646
1686.76563,0.0478079319
1685.47998,0.0464623161
1684.19434,0.0447002538
1682.90869,0.0425418057
1681.62305,0.0407097936
1680.33740,0.0393937230
1679.05176,0.0383994281
1677.76611,0.0376553684
1676.48047,0.0370930955
1675.19482,0.0364947505
1673.90918,0.0356696881
1672.62354,0.0347119085
1671.33789,0.0337965041
1670.05225,0.0329467990
1668.76660,0.0321899652
1667.48096,0.0316264816
1666.19531,0.0312333982
1664.90967,0.0309376456
1663.62402,0.0307890661
1662.33838,0.0308586508
1661.05273,0.0310104229
1659.76709,0.0310364738
1658.48145,0.0309785940
1657.19580,0.0310301650
1655.91016,0.0313355774
1654.62451,0.0319207534
1653.33887,0.0324537680
1652.05322,0.0321759991
1650.76758,0.0313856341
1649.48193,0.0309730899
1648.19629,0.0311912298
1646.91064,0.0319612883
1645.62500,0.0328143425
1644.33936,0.0332717001
1643.05371,0.0334635749
1641.76807,0.0336553045
1640.48242,0.0339053646
1639.19678,0.0341510251
1637.91113,0.0343442112
1636.62549,0.0345109664
1635.33984,0.0346450098
1634.05420,0.0346116796
1632.76855,0.0343857594
1631.48291,0.0340980478
1630.19727,0.0338704363
1628.91162,0.0337599069
1627.62598,0.0337008461
1626.34033,0.0335234962
1625.05469,0.0331473835
1623.76904,0.0326790176
1622.48340,0.0322746113
1621.19775,0.0319567770
1619.91211,0.0316633955
1618.62646,0.0313744769
1617.34082,0.0310694240
1616.05518,0.0306526534
1614.76953,0.0300494879
1613.48389,0.0293062329
1612.19824,0.0285001453
1610.91260,0.0277268402
1609.62695,0.0271078032
1608.34131,0.0266606770
1607.05566,0.0262067541
1605.77002,0.0255502034
1604.48438,0.0247015357
1603.19873,0.0238510203
1601.91309,0.0231731422
1600.62744,0.0226681102
1599.34180,0.0221938733
1598.05615,0.0216427110
1596.77051,0.0210486092
1595.48486,0.0205187351
1594.19922,0.0200774465
1592.91357,0.0196148567
1591.62793,0.0190313365
1590.34229,0.0183809195
1589.05664,0.0178220309
1587.77100,0.0174444206
1586.48535,0.0171873420
1585.19971,0.0169211309
1583.91406,0.0165596325
1582.62842,0.0161032714
1581.34277,0.0156259220
1580.05713,0.0152234333
1578.77148,0.0149429897
1577.48584,0.0147427386
1576.20020,0.0145126274
1574.91455,0.0142042106
1573.62891,0.0139005277
1572.34326,0.0136399819
1571.05762,0.0133640813
1569.77197,0.0130054774
1568.48633,0.0125738056
1567.20068,0.0121434126
1565.91504,0.0117515568
1564.62939,0.0114257196
1563.34375,0.0112259137
1562.05811,0.0111869993
1560.77246,0.0112738637
1559.48682,0.0113816308
1558.20117,0.0113552986
1556.91553,0.0111990580
1555.62988,0.0110018523
1554.34424,0.0107227406
1553.05859,0.0103498464
1551.77295,0.0099479780
1550.48730,0.0095841624
1549.20166,0.0092893532
1547.91602,0.0090827029
1546.63037,0.0089786742
1545.34473,0.0089736274
1544.05908,0.0090465434
1542.77344,0.0091627501
1541.48779,0.0092347721
1540.20215,0.0090612127
1538.91650,0.0086119482
1537.63086,0.0082267458
1536.34521,0.0080592856
1535.05957,0.0080432259
1533.77393,0.0080626616
1532.48828,0.0080098966
1531.20264,0.0079021435
1529.91699,0.0078570684
1528.63135,0.0079292441
1527.34570,0.0080613689
1526.06006,0.0081242416
1524.77441,0.0080513740
1523.48877,0.0079328818
1522.20313,0.0078990599
1520.91748,0.0079354923
1519.63184,0.0078732800
1518.34619,0.0076364763
1517.06055,0.0073172646
1515.77490,0.0070448518
1514.48926,0.0068856832
1513.20361,0.0068433424
1511.91797,0.0069240825
1510.63232,0.0071460223
1509.34668,0.0074861776
1508.06104,0.0078185871
1506.77539,0.0078707747
1505.48975,0.0075632962
1504.20410,0.0072295028
1502.91846,0.0070032589
1501.63281,0.0068550981
1500.34717,0.0067883325
1499.06152,0.0068356376
1497.77588,0.0069947350
1496.49023,0.0071832333
1495.20459,0.0073056556
1493.91895,0.0073559918
1492.63330,0.0073789759
1491.34766,0.0073995139
1490.06201,0.0074154716
1488.77637,0.0074238703
1487.49072,0.0074476763
1486.20508,0.0075060353
1484.91943,0.0075874259
1483.63379,0.0076695150
1482.34814,0.0077372855
1481.06250,0.0077946559
1479.77686,0.0078718029
1478.49121,0.0080031184
1477.20557,0.0081887590
1475.91992,0.0083974907
1474.63428,0.0086062709
1473.34863,0.0087928819
1472.06299,0.0088634687
1470.77734,0.0087595731
1469.49170,0.0086149042
1468.20605,0.0085952869
1466.92041,0.0087713283
1465.63477,0.0091238348
1464.34912,0.0095514553
1463.06348,0.0099371457
1461.77783,0.0102621326
1460.49219,0.0106069669
1459.20654,0.0111403596
1457.92090,0.0121170860
1456.63525,0.0134882322
1455.34961,0.0145755578
1454.06396,0.0151672186
1452.77832,0.0156359579
1451.49268,0.0162358917
1450.20703,0.0170316305
1448.92139,0.0180076789
1447.63574,0.0191168897
1446.35010,0.0202656891
1445.06445,0.0213441979
1443.77881,0.0222919043
1442.49316,0.0230828300
1441.20752,0.0237030163
1439.92188,0.0241963342
1438.63623,0.0246921368
1437.35059,0.0253261235
1436.06494,0.0260579716
1434.77930,0.0266655497
1433.49365,0.0270927027
1432.20801,0.0274931099
1430.92236,0.0279760156
1429.63672,0.0285044312
1428.35107,0.0289695598
1427.06543,0.0293488000
1425.77979,0.0297086630
1424.49414,0.0300793368
1423.20850,0.0304189771
1421.92285,0.0307239667
1420.63721,0.0311338250
1419.35156,0.0318397954
1418.06592,0.0327855572
1416.78027,0.0335955098
1415.49463,0.0340808854
1414.20898,0.0343864337
1412.92334,0.0347145721
1411.63770,0.0351962037
1410.35205,0.0358423777
1409.06641,0.0365434662
1407.78076,0.0371852443
1406.49512,0.0377504863
1405.20947,0.0382625796
1403.92383,0.0386916213
1402.63818,0.0389976278
1401.35254,0.0391975716
1400.06689,0.0393038243
1398.78125,0.0392666198
1397.49561,0.0390527956
1396.20996,0.0387431532
1394.92432,0.0384717733
1393.63867,0.0382891558
1392.35303,0.0381313413
1391.06738,0.0379132740
1389.78174,0.0375972725
1388.49609,0.0371895321
1387.21045,0.0367368385
1385.92480,0.0363180824
1384.63916,0.0359882824
1383.35352,0.0357550122
1382.06787,0.0356154256
1380.78223,0.0355674624
1379.49658,0.0355850533
1378.21094,0.0356232338
1376.92529,0.0356610045
1375.63965,0.0357034653
1374.35400,0.0357273035
1373.06836,0.0356849730
1371.78271,0.0356026441
1370.49707,0.0355910063
1369.21143,0.0357354507
1367.92578,0.0360311121
1366.64014,0.0364220627
1365.35449,0.0368912444
1364.06885,0.0374689475
1362.78320,0.0381278396
1361.49756,0.0387223214
1360.21191,0.0391421057
1358.92627,0.0394594595
1357.64063,0.0398187786
1356.35498,0.0402994864
1355.06934,0.0408943407
1353.78369,0.0415417627
1352.49805,0.0421607122
1351.21240,0.0426898003
1349.92676,0.0431284755
1348.64111,0.0435432047
1347.35547,0.0440017022
1346.06982,0.0445043035
1344.78418,0.0449987575
1343.49854,0.0454512052
1342.21289,0.0458784923
1340.92725,0.0463197045
1339.64160,0.0467789546
1338.35596,0.0471904352
1337.07031,0.0474827737
1335.78467,0.0476829037
1334.49902,0.0478883050
1333.21338,0.0481655449
1331.92773,0.0485122353
1330.64209,0.0488899015
1329.35645,0.0492470749
1328.07080,0.0495175906
1326.78516,0.0496576577
1325.49951,0.0497009270
1324.21387,0.0497367196
1322.92822,0.0498272628
1321.64258,0.0499704182
1320.35693,0.0501233824
1319.07129,0.0502381586
1317.78564,0.0503053218
1316.50000,0.0503774397
1315.21436,0.0505108871
1313.92871,0.0506814383
1312.64307,0.0507970005
1311.35742,0.0507902466
1310.07178,0.0506687276
1308.78613,0.0504838154
1307.50049,0.0503006987
1306.21484,0.0501857363
1304.92920,0.0501661226
1303.64355,0.0501908474
1302.35791,0.0501630455
1301.07227,0.0500198826
1299.78662,0.0497743711
1298.50098,0.0494873635
1297.21533,0.0492175333
1295.92969,0.0490017086
1294.64404,0.0488525853
1293.35840,0.0487528332
1292.07275,0.0486585200
1290.78711,0.0485342331
1289.50146,0.0483859628
1288.21582,0.0482502133
1286.93018,0.0481487773
1285.64453,0.0480652303
1284.35889,0.0479705110
1283.07324,0.0478681885
1281.78760,0.0478065722
1280.50195,0.0478336513
1279.21631,0.0479330495
1277.93066,0.0480289720
1276.64502,0.0480703786
1275.35938,0.0480947532
1274.07373,0.0481977090
1272.78809,0.0484572425
1271.50244,0.0488898456
1270.21680,0.0494521149
1268.93115,0.0500730090
1267.64551,0.0507048294
1266.35986,0.0513510853
1265.07422,0.0520418137
1263.78857,0.0528025441
1262.50293,0.0536615103
1261.21729,0.0546622872
1259.93164,0.0558278114
1258.64600,0.0571250841
1257.36035,0.0584977977
1256.07471,0.0599305816
1254.78906,0.0614566691
1253.50342,0.0631033629
1252.21777,0.0648464262
1250.93213,0.0666254237
1249.64648,0.0684083104
1248.36084,0.0702248067
1247.07520,0.0721113235
1245.78955,0.0740371868
1244.50391,0.0759314969
1243.21826,0.0777746961
1241.93262,0.0795976743
1240.64697,0.0813783705
1239.36133,0.0830250084
1238.07568,0.0844958723
1236.79004,0.0858758464
1235.50439,0.0872776359
1234.21875,0.0887055472
1232.93311,0.0900559649
1231.64746,0.0912230760
1230.36182,0.0921634138
1229.07617,0.0928764418
1227.79053,0.0933672786
1226.50488,0.0936356634
1225.21924,0.0936883688
1223.93359,0.0935469493
1222.64795,0.0932361633
1221.36230,0.0927557573
1220.07666,0.0920702145
1218.79102,0.0911488980
1217.50537,0.0900314748
1216.21973,0.0888289884
1214.93408,0.0876300484
1213.64844,0.0864143521
1212.36279,0.0850929245
1211.07715,0.0836331323
1209.79150,0.0821000487
1208.50586,0.0805722177
1207.22021,0.0790662467
1205.93457,0.0775631815
1204.64893,0.0760651529
1203.36328,0.0745872632
1202.07764,0.0731190071
1200.79199,0.0716270432
1199.50635,0.0700943768
1198.22070,0.0685346574
1196.93506,0.0669639707
1195.64941,0.0653757378
1194.36377,0.0637625381
1193.07813,0.0621578805
1191.79248,0.0606260858
1190.50684,0.0591954887
1189.22119,0.0578217879
1187.93555,0.0564342476
1186.64990,0.0550032370
1185.36426,0.0535422228
1184.07861,0.0520548597
1182.79297,0.0505105071
1181.50732,0.0488827154
1180.22168,0.0471910127
1178.93604,0.0454812422
1177.65039,0.0437739380
1176.36475,0.0420633629
1175.07910,0.0403692499
1173.79346,0.0387572199
1172.50781,0.0372878239
1171.22217,0.0359737985
1169.93652,0.0348054580
1168.65088,0.0337858461
1167.36523,0.0329146050
1166.07959,0.0321644284
1164.79395,0.0315034911
1163.50830,0.0309372563
1162.22266,0.0305075012
1160.93701,0.0302519295
1159.65137,0.0301737245
1158.36572,0.0302485991
1157.08008,0.0304470509
1155.79443,0.0307394676
1154.50879,0.0310814939
1153.22314,0.0314144045
1151.93750,0.0317036919
1150.65186,0.0319705680
1149.36621,0.0322696455
1148.08057,0.0326325521
1146.79492,0.0330429897
1145.50928,0.0334584303
1144.22363,0.0338409655
1142.93799,0.0341702066
1141.65234,0.0344446003
1140.36670,0.0346862003
1139.08105,0.0349353589
1137.79541,0.0352205448
1136.50977,0.0355170593
1135.22412,0.0357415490
1133.93848,0.0358117931
1132.65283,0.0357321873
1131.36719,0.0356098339
1130.08154,0.0355583653
1128.79590,0.0355876647
1127.51025,0.0356125347
1126.22461,0.0355648510
1124.93896,0.0354449861
1123.65332,0.0352467373
1122.36768,0.0349075049
1121.08203,0.0344005525
1119.79639,0.0338280648
1118.51074,0.0333404578
1117.22510,0.0329811797
1115.93945,0.0326742977
1114.65381,0.0323445164
1113.36816,0.0319784246
1112.08252,0.0315762274
1110.79688,0.0311222021
1109.51123,0.0306262039
1108.22559,0.0301491674
1106.93994,0.0297484957
1105.65430,0.0294063538
1104.36865,0.0290365890
1103.08301,0.0285739265
1101.79736,0.0280458461
1100.51172,0.0275365487
1099.22607,0.0271016564
1097.94043,0.0267548226
1096.65479,0.0265130866
1095.36914,0.0263920352
1094.08350,0.0263646953
1092.79785,0.0263878014
1091.51221,0.0264645256
1090.22656,0.0266266316
1088.94092,0.0268669445
1087.65527,0.0271458514
1086.36963,0.0274427831
1085.08398,0.0277437270
1083.79834,0.0280124042
1082.51270,0.0282307528
1081.22705,0.0284385104
1079.94141,0.0286660288
1078.65576,0.0288519729
1077.37012,0.0288938563
1076.08447,0.0287692640
1074.79883,0.0285598282
1073.51318,0.0283701383
1072.22754,0.0282598380
1070.94189,0.0282416884
1069.65625,0.0282992925
1068.37061,0.0283994861
1067.08496,0.0285204910
1065.79932,0.0286827870
1064.51367,0.0289258137
1063.22803,0.0292414092
1061.94238,0.0295551531
1060.65674,0.0297938474
1059.37109,0.0299417824
1058.08545,0.0300125908
1056.79980,0.0299959239
1055.51416,0.0298695955
1054.22852,0.0296449158
1052.94287,0.0293685757
1051.65723,0.0290842783
1050.37158,0.0288071614
1049.08594,0.0285251345
1047.80029,0.0282251965
1046.51465,0.0279258545
1045.22900,0.0276697259
1043.94336,0.0274646822
1042.65771,0.0272587929
1041.37207,0.0270004943
1040.08643,0.0266954433
1038.80078,0.0263727531
1037.51514,0.0260351859
1036.22949,0.0256894492
1034.94385,0.0253964867
1033.65820,0.0252265800
1032.37256,0.0251612924
1031.08691,0.0250930786
1029.80127,0.0249486230
1028.51563,0.0247790031
1027.22998,0.0246949028
1025.94434,0.0247245524
1024.65869,0.0247832537
1023.37305,0.0247906242
1022.08740,0.0247731395
1020.80176,0.0248137563
1019.51611,0.0249258149
1018.23047,0.0250321981
1016.94482,0.0250708666
1015.65918,0.0250755828
1014.37354,0.0251177624
1013.08789,0.0251952242
1011.80225,0.0252275951
1010.51660,0.0251596738
1009.23096,0.0250332430
1007.94531,0.0249419101
1006.65967,0.0249434710
1005.37402,0.0250207372
1004.08838,0.0250962880
1002.80273,0.0250793118
1001.51709,0.0249326974
1000.23145,0.0247126855
998.94580,0.0245262850
997.66016,0.0244386755
996.37451,0.0244353618
995.08887,0.0244689081
993.80322,0.0245149210
992.51758,0.0245703030
991.23193,0.0246165711
989.94629,0.0246100798
988.66064,0.0245273802
987.37500,0.0244097877
986.08936,0.0243313946
984.80371,0.0243113842
983.51807,0.0242901128
982.23242,0.0242099650
980.94678,0.0240843855
979.66113,0.0239664968
978.37549,0.0238846056
977.08984,0.0238335449
975.80420,0.0237986259
974.51855,0.0237571485
973.23291,0.0236826204
971.94727,0.0235748459
970.66162,0.0234664418
969.37598,0.0233842880
968.09033,0.0233227983
966.80469,0.0232712328
965.51904,0.0232395250
964.23340,0.0232412741
962.94775,0.0232660715
961.66211,0.0232837684
960.37646,0.0232614819
959.09082,0.0231788233
957.80518,0.0230506454
956.51953,0.0229447447
955.23389,0.0229469296
953.94824,0.0230851788
952.66260,0.0232934374
951.37695,0.0234627519
950.09131,0.0235292595
948.80566,0.0235193688
947.52002,0.0235207882
946.23438,0.0236034077
944.94873,0.0237527471
943.66309,0.0238784514
942.37744,0.0238870941
941.09180,0.0237417538
939.80615,0.0234627258
938.52051,0.0231027845
937.23486,0.0227253586
935.94922,0.0223830659
934.66357,0.0221021287
933.37793,0.0218910873
932.09229,0.0217501707
930.80664,0.0216485336
929.52100,0.0215111505
928.23535,0.0212606266
926.94971,0.0208841711
925.66406,0.0204512998
924.37842,0.0200636201
923.09277,0.0197768100
921.80713,0.0195481852
920.52148,0.0192724857
919.23584,0.0188941304
917.95020,0.0184792839
916.66455,0.0181519762
915.37891,0.0179658327
914.09326,0.0178633500
912.80762,0.0177503768
911.52197,0.0175908748
910.23633,0.0174502153
908.95068,0.0174599160
907.66504,0.0176984966
906.37939,0.0180816706
905.09375,0.0184096005
903.80811,0.0185559466
902.52246,0.0185723994
901.23682,0.0185723193
899.95117,0.0185636748
